sample interval
(0.004 sec)	  
359 
366 
385 
385 
378 
390 
405 
395 
385 
394 
406 
395 
386 
390 
391 
368 
355 
364 
364 
348 
349 
363 
366 
353 
353 
365 
359 
347 
355 
368 
351 
320 
302 
304 
332 
458 
621 
667 
592 
525 
483 
421 
355 
335 
355 
359 
341 
335 
350 
349 
336 
342 
355 
346 
334 
342 
350 
340 
336 
348 
360 
346 
339 
352 
356 
344 
343 
355 
355 
342 
341 
353 
351 
338 
345 
358 
351 
345 
354 
366 
358 
355 
364 
373 
363 
362 
376 
384 
371 
367 
379 
380 
366 
368 
384 
382 
364 
362 
378 
376 
365 
371 
382 
375 
368 
383 
401 
397 
385 
372 
361 
352 
358 
379 
392 
386 
388 
401 
406 
391 
387 
396 
388 
368 
359 
365 
357 
347 
349 
358 
351 
345 
352 
357 
345 
342 
355 
359 
340 
324 
317 
300 
302 
380 
544 
633 
593 
529 
493 
429 
357 
334 
344 
336 
324 
330 
335 
320 
315 
330 
338 
322 
319 
330 
333 
318 
319 
333 
332 
318 
322 
335 
329 
313 
315 
327 
321 
310 
313 
325 
317 
312 
320 
325 
314 
312 
327 
331 
317 
318 
334 
335 
323 
329 
346 
346 
333 
333 
347 
345 
336 
339 
347 
338 
332 
340 
346 
334 
334 
350 
355 
336 
330 
343 
347 
334 
337 
356 
356 
350 
357 
371 
363 
354 
364 
375 
358 
343 
347 
347 
324 
313 
322 
328 
312 
307 
320 
324 
311 
308 
321 
323 
309 
306 
314 
295 
258 
248 
290 
393 
548 
616 
572 
493 
421 
367 
328 
301 
299 
319 
326 
303 
297 
311 
314 
300 
300 
314 
313 
303 
306 
317 
310 
303 
310 
319 
307 
301 
316 
327 
311 
300 
307 
313 
302 
298 
310 
312 
298 
297 
310 
311 
298 
304 
323 
323 
315 
320 
332 
326 
319 
329 
340 
330 
324 
334 
341 
327 
324 
335 
342 
328 
326 
341 
344 
331 
329 
344 
343 
329 
330 
341 
341 
341 
353 
368 
361 
355 
364 
373 
362 
355 
362 
364 
346 
333 
334 
331 
317 
314 
326 
327 
315 
319 
332 
325 
314 
323 
335 
322 
305 
299 
288 
261 
284 
406 
589 
640 
568 
502 
455 
383 
328 
321 
325 
313 
308 
318 
312 
304 
312 
325 
317 
307 
316 
328 
316 
307 
319 
328 
313 
310 
327 
332 
318 
317 
329 
329 
316 
317 
330 
326 
312 
318 
337 
334 
324 
328 
339 
331 
325 
337 
349 
339 
337 
351 
364 
355 
352 
365 
370 
356 
355 
370 
369 
355 
356 
372 
370 
358 
361 
375 
365 
354 
363 
380 
372 
361 
368 
377 
372 
375 
393 
403 
392 
388 
400 
407 
395 
394 
403 
393 
373 
367 
363 
352 
348 
361 
371 
355 
346 
358 
370 
358 
352 
362 
369 
351 
338 
332 
313 
293 
333 
476 
627 
654 
591 
536 
473 
402 
363 
361 
354 
346 
349 
354 
343 
340 
353 
357 
341 
339 
356 
360 
345 
342 
358 
359 
345 
347 
362 
355 
341 
347 
361 
354 
346 
353 
365 
355 
345 
351 
360 
351 
351 
365 
369 
354 
351 
371 
381 
371 
367 
378 
380 
373 
379 
389 
381 
372 
382 
397 
389 
380 
395 
405 
383 
367 
372 
375 
364 
369 
383 
381 
367 
375 
398 
402 
390 
393 
406 
403 
395 
401 
404 
387 
376 
379 
377 
356 
348 
358 
361 
348 
348 
357 
358 
346 
346 
359 
358 
341 
335 
337 
316 
283 
295 
377 
521 
624 
619 
554 
484 
415 
366 
343 
328 
326 
337 
339 
322 
316 
329 
329 
314 
315 
330 
330 
317 
318 
332 
325 
312 
319 
332 
324 
313 
322 
333 
320 
311 
319 
327 
315 
310 
321 
324 
311 
312 
325 
326 
314 
319 
336 
336 
327 
335 
349 
339 
330 
340 
352 
339 
330 
340 
351 
341 
334 
343 
351 
341 
337 
343 
344 
334 
337 
351 
348 
334 
339 
352 
344 
335 
347 
364 
359 
355 
364 
373 
363 
358 
367 
369 
350 
341 
347 
340 
321 
317 
331 
329 
316 
318 
330 
324 
311 
317 
332 
323 
310 
312 
310 
276 
253 
290 
397 
546 
613 
567 
496 
433 
377 
338 
317 
304 
309 
320 
310 
295 
302 
317 
310 
298 
304 
316 
306 
301 
311 
320 
308 
301 
311 
316 
303 
300 
313 
314 
303 
307 
319 
315 
300 
304 
321 
317 
303 
306 
318 
312 
307 
319 
331 
323 
317 
332 
345 
333 
326 
338 
341 
328 
328 
342 
343 
330 
333 
346 
341 
327 
332 
345 
339 
331 
338 
348 
335 
329 
341 
351 
336 
328 
338 
343 
332 
332 
344 
342 
325 
329 
354 
360 
350 
358 
372 
361 
347 
356 
370 
356 
343 
346 
345 
322 
312 
320 
325 
312 
308 
320 
325 
313 
314 
326 
323 
309 
311 
320 
301 
261 
251 
302 
407 
565 
619 
551 
463 
413 
379 
338 
303 
300 
316 
316 
296 
291 
306 
308 
295 
296 
309 
306 
294 
299 
312 
303 
292 
302 
317 
306 
295 
304 
313 
302 
297 
307 
313 
298 
296 
309 
310 
294 
296 
314 
312 
299 
303 
321 
318 
309 
318 
333 
325 
317 
326 
338 
328 
319 
331 
342 
331 
327 
339 
341 
327 
326 
339 
338 
324 
328 
346 
345 
329 
332 
346 
336 
326 
336 
347 
334 
324 
333 
343 
331 
324 
334 
340 
329 
329 
342 
342 
328 
333 
354 
357 
351 
358 
372 
359 
344 
352 
367 
356 
345 
350 
352 
332 
322 
333 
337 
320 
315 
330 
336 
321 
318 
332 
334 
323 
322 
327 
310 
270 
258 
307 
419 
583 
641 
570 
478 
426 
391 
348 
310 
310 
332 
335 
315 
312 
326 
326 
311 
313 
328 
327 
314 
318 
334 
328 
317 
322 
333 
325 
319 
329 
339 
325 
319 
333 
337 
323 
321 
333 
336 
324 
326 
343 
345 
333 
335 
352 
353 
344 
353 
369 
362 
352 
361 
374 
364 
356 
366 
373 
364 
364 
376 
378 
362 
361 
376 
378 
365 
366 
379 
377 
365 
368 
381 
372 
365 
375 
387 
373 
361 
372 
383 
371 
365 
376 
382 
372 
370 
383 
383 
371 
378 
398 
403 
393 
394 
405 
400 
392 
395 
405 
394 
380 
378 
375 
360 
356 
368 
375 
360 
355 
367 
371 
358 
358 
370 
370 
356 
352 
354 
325 
291 
313 
418 
568 
642 
615 
557 
496 
430 
379 
360 
351 
353 
363 
361 
347 
348 
363 
364 
349 
347 
362 
361 
350 
353 
365 
360 
348 
353 
366 
358 
351 
360 
367 
352 
347 
361 
365 
353 
352 
364 
366 
351 
352 
368 
368 
356 
362 
377 
373 
362 
369 
385 
373 
364 
375 
385 
373 
365 
377 
386 
371 
365 
379 
381 
367 
366 
382 
384 
367 
366 
382 
380 
366 
365 
378 
372 
361 
365 
380 
373 
365 
380 
396 
386 
383 
395 
402 
392 
392 
401 
395 
377 
377 
383 
364 
342 
346 
362 
355 
341 
347 
360 
349 
340 
351 
362 
349 
338 
342 
340 
312 
287 
300 
356 
483 
602 
618 
551 
484 
432 
386 
344 
324 
334 
346 
334 
317 
325 
343 
336 
323 
326 
338 
331 
324 
331 
336 
322 
319 
333 
336 
324 
323 
336 
333 
320 
324 
339 
332 
321 
329 
353 
349 
328 
315 
322 
322 
325 
337 
344 
336 
338 
353 
358 
345 
346 
371 
385 
375 
358 
350 
335 
326 
335 
353 
349 
338 
348 
368 
362 
358 
366 
380 
370 
346 
335 
338 
335 
338 
355 
357 
346 
350 
362 
363 
362 
375 
388 
375 
368 
376 
385 
375 
367 
370 
370 
343 
325 
337 
346 
334 
330 
339 
343 
332 
334 
346 
341 
326 
325 
336 
328 
309 
300 
296 
298 
376 
549 
643 
578 
489 
453 
418 
358 
317 
324 
338 
328 
320 
334 
333 
313 
310 
329 
332 
320 
312 
311 
309 
315 
330 
338 
325 
319 
328 
326 
308 
310 
332 
336 
310 
305 
330 
345 
327 
318 
340 
345 
328 
316 
321 
322 
324 
335 
350 
348 
343 
354 
363 
354 
355 
363 
354 
326 
331 
351 
350 
336 
340 
357 
364 
357 
377 
397 
379 
339 
337 
355 
334 
311 
325 
348 
341 
339 
354 
362 
349 
346 
360 
360 
346 
351 
372 
376 
368 
376 
383 
375 
367 
377 
387 
377 
370 
370 
357 
318 
308 
330 
346 
340 
338 
339 
338 
332 
331 
336 
335 
326 
328 
330 
291 
243 
278 
420 
600 
654 
591 
528 
462 
388 
353 
347 
338 
323 
309 
312 
312 
315 
327 
333 
314 
316 
339 
339 
308 
300 
322 
328 
315 
311 
322 
324 
315 
316 
326 
317 
310 
319 
334 
319 
307 
318 
330 
321 
319 
329 
331 
321 
325 
345 
347 
336 
340 
354 
350 
338 
343 
358 
352 
340 
345 
355 
349 
345 
354 
359 
345 
342 
358 
365 
350 
348 
367 
374 
364 
358 
357 
342 
332 
344 
362 
355 
343 
351 
363 
351 
343 
351 
362 
349 
344 
380 
398 
367 
363 
383 
369 
337 
345 
377 
377 
354 
352 
371 
362 
339 
333 
341 
333 
320 
323 
341 
337 
326 
333 
346 
339 
343 
352 
337 
309 
290 
273 
279 
369 
570 
686 
627 
517 
449 
406 
355 
333 
359 
405 
376 
300 
271 
294 
305 
312 
327 
330 
311 
310 
329 
333 
322 
320 
334 
333 
322 
325 
335 
326 
318 
328 
340 
331 
325 
335 
345 
338 
335 
335 
343 
335 
335 
353 
357 
341 
343 
361 
363 
352 
355 
370 
367 
356 
356 
366 
361 
356 
364 
370 
356 
350 
364 
376 
361 
354 
365 
372 
362 
359 
371 
371 
358 
358 
373 
370 
358 
360 
370 
364 
358 
372 
387 
379 
373 
387 
396 
386 
385 
396 
396 
375 
369 
376 
364 
343 
345 
360 
358 
345 
347 
360 
355 
345 
351 
362 
353 
346 
350 
347 
317 
287 
296 
359 
493 
624 
657 
591 
509 
443 
396 
360 
336 
338 
353 
350 
335 
338 
349 
340 
330 
341 
354 
343 
332 
342 
351 
338 
334 
345 
351 
337 
332 
343 
347 
335 
335 
350 
347 
333 
334 
348 
343 
335 
343 
356 
345 
336 
349 
362 
352 
348 
361 
367 
353 
350 
363 
365 
352 
352 
364 
364 
350 
351 
365 
360 
349 
353 
365 
356 
347 
356 
365 
353 
345 
355 
363 
349 
344 
357 
365 
354 
356 
372 
378 
369 
372 
386 
387 
374 
371 
379 
369 
353 
348 
349 
336 
324 
331 
341 
331 
327 
338 
341 
324 
321 
336 
339 
325 
317 
314 
287 
260 
295 
419 
576 
630 
578 
514 
447 
378 
338 
328 
317 
313 
320 
323 
307 
303 
316 
320 
307 
305 
319 
320 
306 
307 
321 
317 
306 
311 
324 
314 
304 
313 
324 
313 
305 
313 
321 
311 
308 
321 
325 
311 
310 
325 
328 
317 
322 
339 
339 
328 
334 
348 
340 
328 
334 
348 
338 
328 
338 
350 
338 
331 
341 
347 
334 
333 
347 
349 
335 
334 
348 
347 
334 
337 
351 
345 
332 
335 
352 
354 
351 
362 
376 
366 
358 
370 
381 
365 
354 
360 
361 
339 
325 
333 
333 
320 
322 
334 
330 
317 
321 
336 
330 
319 
324 
336 
324 
306 
290 
273 
271 
343 
523 
655 
619 
527 
476 
422 
350 
314 
324 
328 
314 
311 
321 
315 
304 
311 
323 
314 
303 
311 
322 
310 
303 
316 
324 
311 
307 
320 
323 
307 
305 
320 
321 
308 
310 
323 
320 
306 
311 
327 
322 
311 
318 
333 
327 
322 
335 
345 
335 
330 
342 
349 
336 
331 
344 
346 
333 
333 
347 
348 
337 
339 
353 
346 
334 
341 
354 
347 
338 
346 
355 
343 
336 
348 
354 
340 
336 
351 
363 
355 
358 
377 
378 
365 
366 
383 
380 
362 
364 
374 
359 
336 
332 
344 
336 
329 
336 
345 
332 
326 
339 
346 
334 
328 
340 
337 
316 
295 
277 
267 
315 
477 
662 
669 
568 
496 
452 
386 
333 
330 
344 
334 
324 
333 
339 
327 
323 
335 
338 
324 
325 
341 
341 
328 
330 
343 
339 
327 
331 
345 
340 
333 
338 
346 
334 
330 
344 
353 
340 
336 
346 
352 
343 
344 
363 
366 
354 
360 
378 
374 
361 
367 
383 
375 
362 
370 
382 
371 
363 
373 
383 
370 
361 
373 
384 
370 
361 
370 
373 
363 
363 
375 
370 
352 
355 
370 
368 
361 
372 
390 
385 
376 
384 
399 
390 
379 
380 
382 
367 
357 
358 
354 
339 
337 
351 
350 
338 
336 
349 
345 
335 
340 
354 
347 
331 
328 
319 
284 
272 
338 
493 
623 
642 
590 
530 
450 
380 
349 
340 
331 
335 
344 
339 
327 
327 
340 
335 
322 
327 
342 
337 
330 
337 
346 
334 
328 
340 
345 
330 
328 
343 
346 
329 
325 
339 
342 
330 
332 
345 
343 
334 
342 
356 
349 
341 
353 
369 
362 
355 
362 
370 
358 
355 
368 
372 
356 
353 
367 
370 
358 
358 
370 
367 
353 
357 
371 
364 
351 
356 
368 
360 
352 
365 
381 
372 
367 
382 
393 
380 
379 
395 
393 
373 
367 
378 
368 
340 
338 
351 
345 
333 
339 
352 
343 
331 
337 
347 
338 
329 
340 
344 
321 
295 
282 
290 
339 
489 
634 
646 
558 
492 
443 
378 
327 
322 
337 
329 
316 
320 
330 
318 
309 
320 
330 
319 
312 
322 
326 
314 
315 
327 
329 
313 
311 
325 
324 
309 
309 
323 
319 
308 
315 
327 
316 
305 
316 
328 
318 
314 
328 
339 
331 
328 
342 
348 
335 
335 
347 
348 
336 
338 
353 
350 
338 
340 
353 
347 
337 
344 
355 
345 
336 
345 
354 
342 
337 
349 
354 
345 
349 
367 
373 
362 
366 
380 
381 
369 
367 
374 
365 
350 
347 
348 
334 
323 
331 
340 
329 
322 
332 
340 
328 
325 
337 
340 
325 
319 
319 
290 
255 
279 
388 
557 
647 
612 
539 
467 
396 
349 
333 
321 
318 
325 
328 
315 
310 
322 
327 
313 
310 
322 
324 
311 
313 
326 
324 
311 
315 
328 
321 
311 
318 
331 
322 
314 
321 
329 
317 
314 
326 
332 
320 
319 
332 
336 
326 
329 
347 
348 
337 
341 
356 
351 
341 
346 
358 
350 
341 
349 
360 
349 
342 
352 
360 
347 
342 
355 
360 
345 
344 
358 
359 
346 
348 
362 
357 
342 
349 
368 
368 
361 
372 
385 
375 
365 
377 
385 
371 
363 
368 
365 
341 
332 
345 
345 
329 
328 
343 
343 
331 
333 
347 
340 
328 
334 
344 
329 
303 
283 
279 
312 
442 
629 
676 
585 
502 
458 
402 
338 
320 
336 
336 
319 
319 
332 
328 
316 
321 
333 
325 
315 
323 
334 
323 
317 
328 
336 
323 
320 
331 
336 
321 
318 
331 
332 
321 
325 
338 
334 
323 
328 
343 
338 
328 
338 
354 
351 
343 
353 
364 
352 
348 
364 
371 
358 
353 
365 
369 
356 
355 
369 
370 
360 
364 
371 
366 
357 
362 
373 
364 
357 
367 
378 
366 
359 
369 
375 
362 
359 
373 
377 
360 
362 
380 
386 
379 
385 
401 
396 
382 
387 
399 
389 
375 
378 
381 
360 
346 
353 
361 
351 
348 
358 
362 
346 
341 
355 
358 
344 
342 
352 
344 
315 
292 
296 
335 
454 
608 
663 
597 
512 
454 
401 
348 
330 
341 
351 
336 
327 
334 
337 
327 
326 
337 
340 
326 
326 
339 
335 
326 
328 
340 
332 
321 
327 
340 
329 
321 
329 
337 
329 
321 
330 
337 
327 
326 
340 
343 
327 
330 
348 
351 
341 
345 
357 
351 
342 
349 
362 
350 
340 
346 
357 
348 
343 
354 
361 
344 
337 
351 
357 
341 
339 
353 
353 
341 
343 
355 
350 
337 
339 
352 
346 
339 
349 
363 
356 
353 
366 
376 
365 
362 
373 
374 
354 
348 
357 
349 
323 
319 
333 
330 
316 
318 
332 
326 
315 
319 
334 
326 
315 
319 
324 
301 
275 
266 
285 
351 
503 
618 
603 
514 
450 
399 
343 
303 
302 
320 
313 
297 
300 
311 
303 
293 
299 
308 
300 
294 
306 
312 
298 
295 
307 
312 
298 
293 
304 
306 
293 
296 
310 
306 
292 
296 
311 
305 
294 
300 
314 
308 
301 
311 
323 
314 
310 
325 
332 
320 
316 
327 
330 
318 
320 
334 
332 
318 
321 
337 
332 
319 
324 
336 
329 
320 
329 
339 
328 
320 
332 
340 
327 
322 
333 
337 
323 
324 
337 
338 
327 
335 
354 
357 
348 
354 
366 
360 
350 
353 
362 
350 
338 
338 
337 
320 
314 
324 
329 
317 
313 
324 
325 
313 
314 
328 
327 
313 
312 
317 
292 
256 
270 
355 
506 
616 
600 
528 
456 
395 
352 
327 
308 
309 
323 
323 
305 
303 
319 
322 
308 
306 
320 
318 
305 
309 
324 
319 
309 
317 
329 
318 
309 
320 
327 
314 
309 
320 
327 
314 
313 
327 
330 
318 
319 
333 
332 
320 
327 
344 
340 
332 
341 
353 
343 
334 
342 
352 
339 
333 
345 
353 
340 
336 
350 
355 
341 
340 
352 
351 
338 
341 
356 
353 
340 
344 
358 
350 
339 
345 
356 
344 
337 
348 
356 
343 
339 
350 
355 
342 
340 
353 
355 
349 
357 
375 
376 
363 
361 
373 
372 
360 
364 
372 
358 
341 
338 
345 
334 
327 
336 
342 
330 
328 
342 
346 
331 
327 
338 
339 
325 
318 
305 
270 
277 
371 
556 
657 
613 
536 
485 
415 
351 
330 
335 
329 
326 
337 
339 
320 
316 
334 
336 
321 
321 
338 
336 
323 
327 
342 
338 
328 
334 
345 
335 
328 
338 
350 
339 
331 
342 
351 
340 
340 
354 
355 
344 
347 
363 
364 
355 
362 
377 
370 
358 
368 
384 
374 
361 
371 
381 
370 
366 
375 
383 
371 
367 
379 
384 
373 
370 
381 
383 
373 
374 
385 
382 
369 
372 
383 
376 
368 
375 
388 
377 
366 
372 
384 
376 
372 
377 
382 
371 
368 
382 
389 
382 
390 
408 
403 
388 
393 
411 
402 
387 
389 
398 
379 
358 
363 
372 
361 
356 
367 
373 
360 
357 
368 
370 
358 
357 
368 
362 
340 
323 
314 
313 
365 
520 
652 
642 
556 
497 
451 
387 
349 
354 
365 
352 
342 
350 
356 
342 
338 
350 
352 
339 
340 
355 
353 
342 
346 
358 
351 
342 
346 
357 
347 
338 
347 
355 
342 
338 
354 
361 
347 
341 
354 
356 
343 
345 
361 
364 
353 
353 
367 
365 
356 
362 
372 
362 
352 
360 
371 
362 
356 
364 
368 
353 
351 
366 
371 
356 
352 
366 
366 
353 
354 
367 
362 
351 
356 
369 
360 
348 
353 
366 
357 
349 
359 
371 
365 
363 
379 
386 
373 
369 
385 
388 
370 
367 
376 
368 
343 
335 
347 
344 
332 
336 
347 
338 
327 
332 
343 
333 
328 
336 
340 
321 
306 
295 
279 
285 
370 
540 
630 
579 
504 
463 
403 
338 
319 
334 
331 
316 
317 
325 
316 
309 
319 
327 
316 
312 
322 
327 
315 
315 
328 
330 
314 
314 
327 
326 
314 
318 
330 
322 
312 
319 
332 
324 
315 
323 
335 
324 
319 
333 
344 
332 
329 
342 
348 
335 
335 
349 
349 
337 
337 
348 
343 
333 
338 
351 
343 
332 
340 
349 
338 
331 
343 
353 
340 
334 
346 
352 
339 
336 
348 
350 
337 
338 
350 
346 
332 
336 
349 
343 
333 
340 
352 
341 
332 
341 
349 
338 
338 
356 
368 
360 
356 
365 
367 
354 
353 
364 
358 
341 
336 
339 
328 
317 
322 
332 
323 
313 
321 
332 
320 
314 
326 
332 
316 
306 
309 
289 
246 
253 
343 
512 
618 
592 
514 
448 
384 
336 
317 
306 
299 
304 
313 
301 
292 
301 
310 
298 
292 
304 
310 
297 
295 
308 
310 
296 
297 
312 
310 
297 
300 
314 
310 
300 
305 
318 
310 
301 
312 
322 
309 
303 
318 
332 
323 
320 
332 
338 
325 
326 
342 
343 
331 
333 
348 
344 
328 
333 
347 
341 
331 
336 
346 
338 
334 
346 
353 
340 
335 
349 
356 
345 
341 
352 
354 
343 
344 
358 
357 
343 
347 
363 
358 
347 
352 
367 
361 
349 
356 
367 
358 
354 
363 
370 
359 
358 
375 
387 
380 
384 
401 
401 
386 
389 
403 
397 
383 
388 
398 
381 
359 
364 
379 
368 
359 
368 
376 
365 
360 
372 
377 
364 
360 
372 
369 
342 
317 
311 
333 
418 
589 
687 
640 
543 
489 
446 
384 
353 
364 
377 
362 
355 
365 
368 
353 
353 
368 
369 
354 
353 
370 
372 
359 
359 
371 
366 
355 
361 
378 
370 
356 
363 
375 
366 
358 
370 
378 
366 
363 
378 
383 
369 
368 
382 
385 
377 
380 
394 
391 
376 
380 
396 
389 
377 
384 
394 
381 
373 
386 
394 
380 
374 
385 
391 
377 
373 
382 
387 
375 
374 
385 
380 
367 
372 
386 
380 
367 
371 
383 
374 
363 
369 
381 
370 
364 
380 
393 
386 
383 
394 
397 
388 
387 
394 
388 
372 
370 
375 
359 
342 
345 
356 
349 
337 
342 
351 
342 
334 
343 
351 
339 
334 
343 
339 
305 
278 
292 
352 
478 
605 
627 
550 
473 
420 
380 
339 
320 
328 
340 
328 
315 
322 
331 
319 
313 
324 
330 
317 
312 
324 
328 
315 
313 
325 
325 
311 
311 
326 
323 
311 
316 
327 
320 
310 
317 
327 
317 
311 
322 
331 
319 
317 
333 
343 
330 
327 
340 
342 
331 
333 
345 
339 
326 
331 
347 
339 
326 
332 
342 
331 
323 
333 
342 
332 
327 
339 
345 
332 
328 
340 
341 
326 
326 
340 
339 
327 
329 
341 
336 
325 
330 
342 
333 
322 
333 
350 
345 
342 
354 
363 
351 
347 
363 
366 
345 
338 
349 
345 
321 
313 
326 
322 
309 
311 
323 
317 
307 
314 
325 
315 
307 
318 
324 
303 
274 
257 
260 
300 
432 
597 
619 
525 
457 
418 
362 
308 
299 
317 
313 
297 
299 
310 
300 
292 
301 
311 
299 
292 
303 
310 
297 
292 
305 
311 
298 
295 
307 
309 
296 
296 
310 
309 
299 
303 
315 
306 
297 
307 
321 
313 
306 
317 
328 
321 
319 
334 
340 
327 
323 
335 
337 
325 
328 
342 
340 
325 
328 
340 
334 
323 
330 
344 
336 
328 
335 
343 
331 
326 
337 
345 
333 
330 
341 
344 
331 
330 
344 
343 
329 
332 
347 
343 
330 
334 
348 
342 
331 
336 
352 
351 
349 
364 
373 
360 
351 
364 
371 
356 
351 
361 
356 
334 
328 
339 
338 
324 
326 
339 
334 
325 
332 
344 
335 
327 
336 
343 
323 
300 
281 
270 
298 
419 
614 
674 
584 
497 
455 
402 
340 
322 
336 
335 
321 
323 
334 
325 
314 
323 
335 
325 
318 
329 
336 
323 
319 
331 
336 
324 
324 
337 
340 
327 
328 
341 
338 
327 
331 
342 
337 
331 
342 
354 
344 
337 
349 
364 
357 
356 
370 
376 
363 
360 
374 
378 
364 
365 
379 
375 
362 
365 
381 
378 
368 
375 
386 
377 
366 
376 
389 
378 
369 
380 
390 
378 
375 
385 
387 
374 
375 
389 
388 
373 
376 
392 
386 
370 
375 
389 
384 
376 
382 
393 
386 
385 
403 
417 
404 
395 
405 
415 
402 
395 
403 
403 
387 
375 
378 
379 
368 
367 
376 
370 
362 
368 
379 
370 
358 
366 
377 
363 
350 
346 
325 
293 
319 
446 
616 
667 
614 
550 
489 
416 
370 
365 
360 
351 
355 
366 
354 
343 
350 
362 
351 
344 
355 
363 
350 
342 
355 
360 
346 
344 
358 
358 
344 
344 
358 
357 
347 
349 
359 
353 
345 
356 
371 
359 
349 
358 
370 
360 
357 
372 
382 
367 
363 
374 
376 
362 
362 
375 
374 
360 
362 
376 
370 
358 
362 
376 
368 
359 
366 
374 
362 
356 
367 
373 
359 
355 
367 
370 
357 
356 
367 
365 
351 
353 
370 
370 
360 
365 
385 
382 
371 
377 
392 
384 
371 
374 
378 
361 
346 
347 
350 
336 
332 
344 
346 
332 
332 
344 
341 
331 
334 
345 
339 
326 
320 
309 
273 
267 
336 
491 
610 
610 
547 
492 
420 
356 
334 
330 
322 
320 
328 
324 
310 
311 
324 
321 
309 
313 
325 
317 
308 
316 
326 
314 
308 
318 
325 
312 
307 
317 
321 
308 
307 
320 
320 
307 
308 
322 
322 
313 
319 
334 
329 
322 
330 
343 
336 
331 
340 
348 
334 
327 
338 
344 
332 
330 
341 
342 
329 
330 
343 
341 
328 
332 
346 
340 
327 
333 
346 
336 
326 
334 
345 
334 
328 
338 
345 
333 
329 
339 
343 
331 
329 
340 
340 
328 
336 
355 
356 
349 
354 
368 
360 
353 
359 
365 
350 
338 
343 
342 
321 
314 
326 
330 
314 
311 
326 
329 
315 
313 
325 
322 
310 
313 
319 
296 
257 
244 
289 
389 
557 
641 
591 
498 
434 
387 
342 
303 
299 
316 
317 
298 
295 
308 
307 
294 
296 
310 
307 
295 
298 
311 
305 
297 
304 
315 
303 
295 
306 
314 
301 
296 
308 
312 
300 
302 
316 
316 
302 
304 
321 
322 
312 
319 
333 
328 
322 
331 
344 
334 
325 
334 
344 
332 
325 
336 
342 
328 
325 
339 
341 
328 
328 
342 
341 
328 
331 
346 
341 
330 
336 
347 
338 
329 
337 
349 
339 
332 
341 
348 
336 
332 
345 
349 
337 
336 
349 
348 
335 
338 
353 
349 
342 
353 
371 
369 
361 
365 
372 
364 
359 
369 
375 
358 
347 
351 
348 
331 
330 
345 
346 
334 
333 
346 
343 
332 
337 
350 
343 
329 
329 
319 
276 
258 
324 
484 
650 
672 
600 
525 
453 
389 
354 
343 
333 
336 
348 
346 
329 
329 
344 
342 
330 
334 
346 
340 
332 
339 
350 
339 
330 
340 
350 
339 
334 
344 
351 
340 
339 
353 
353 
340 
343 
359 
357 
346 
350 
368 
366 
358 
365 
378 
372 
368 
378 
387 
375 
369 
378 
382 
369 
368 
382 
385 
371 
369 
382 
380 
368 
372 
385 
379 
367 
371 
383 
375 
368 
377 
386 
373 
367 
380 
386 
369 
366 
381 
386 
372 
369 
380 
382 
371 
371 
382 
378 
371 
380 
397 
394 
386 
392 
402 
398 
390 
392 
395 
383 
375 
374 
369 
354 
354 
367 
365 
351 
354 
368 
363 
350 
354 
367 
361 
350 
348 
344 
313 
282 
307 
406 
556 
645 
635 
568 
492 
422 
376 
353 
341 
344 
355 
347 
331 
335 
350 
345 
331 
333 
345 
339 
330 
337 
346 
335 
329 
339 
347 
334 
329 
339 
342 
329 
327 
340 
341 
327 
330 
347 
345 
331 
335 
350 
347 
340 
348 
361 
355 
349 
356 
363 
350 
344 
355 
361 
348 
345 
357 
359 
345 
344 
360 
358 
343 
345 
358 
353 
341 
345 
358 
348 
338 
346 
357 
347 
339 
348 
354 
341 
338 
351 
355 
342 
340 
352 
354 
344 
350 
367 
368 
361 
366 
376 
369 
359 
363 
371 
359 
347 
345 
342 
328 
323 
333 
337 
322 
320 
335 
336 
321 
321 
333 
331 
318 
319 
322 
291 
251 
257 
330 
472 
607 
630 
566 
488 
418 
364 
329 
308 
309 
322 
321 
303 
300 
313 
314 
301 
303 
317 
311 
298 
304 
319 
310 
301 
309 
319 
308 
300 
309 
316 
304 
299 
311 
317 
304 
303 
317 
319 
308 
309 
323 
322 
313 
320 
337 
332 
322 
329 
342 
332 
324 
332 
340 
328 
323 
334 
340 
327 
323 
336 
339 
325 
325 
338 
337 
326 
330 
344 
337 
324 
328 
340 
332 
325 
334 
344 
332 
324 
335 
342 
329 
325 
337 
339 
327 
325 
338 
339 
326 
326 
339 
336 
325 
330 
344 
336 
325 
332 
344 
334 
325 
340 
357 
351 
352 
365 
364 
344 
345 
361 
362 
344 
342 
350 
340 
319 
321 
333 
325 
314 
321 
334 
323 
315 
323 
332 
321 
315 
324 
321 
284 
246 
249 
310 
445 
618 
664 
584 
493 
437 
387 
331 
302 
311 
327 
315 
301 
306 
315 
304 
298 
308 
316 
304 
300 
310 
315 
304 
304 
316 
316 
304 
305 
318 
314 
301 
307 
322 
316 
305 
311 
324 
319 
313 
321 
330 
321 
321 
335 
343 
335 
337 
354 
357 
343 
342 
356 
354 
341 
344 
357 
351 
340 
348 
359 
351 
342 
352 
364 
352 
344 
354 
362 
352 
350 
362 
367 
354 
353 
368 
370 
356 
356 
369 
367 
358 
362 
375 
366 
356 
363 
376 
367 
361 
370 
378 
364 
357 
371 
377 
365 
364 
375 
375 
363 
367 
381 
376 
363 
368 
382 
376 
368 
382 
400 
396 
389 
397 
403 
392 
389 
399 
402 
385 
379 
384 
376 
360 
360 
372 
372 
361 
363 
377 
373 
361 
365 
377 
368 
358 
359 
354 
315 
281 
317 
436 
598 
682 
657 
581 
498 
425 
383 
364 
353 
356 
363 
353 
341 
347 
361 
353 
340 
346 
358 
350 
342 
350 
357 
344 
340 
352 
357 
342 
339 
354 
356 
341 
341 
357 
358 
346 
347 
359 
354 
346 
353 
366 
359 
353 
364 
377 
368 
363 
375 
382 
368 
363 
373 
376 
364 
362 
375 
371 
357 
361 
375 
370 
359 
365 
377 
370 
359 
365 
375 
365 
357 
367 
375 
362 
356 
368 
373 
358 
356 
370 
371 
357 
357 
370 
367 
356 
359 
371 
362 
351 
358 
370 
360 
351 
357 
366 
361 
362 
378 
389 
378 
373 
382 
385 
374 
371 
379 
376 
360 
353 
354 
346 
336 
342 
352 
341 
332 
341 
353 
340 
331 
340 
348 
336 
328 
328 
306 
266 
278 
377 
539 
635 
623 
563 
495 
415 
354 
338 
330 
324 
330 
336 
321 
312 
322 
330 
318 
312 
324 
329 
317 
314 
327 
329 
316 
316 
327 
326 
314 
317 
329 
322 
311 
317 
330 
321 
314 
323 
333 
322 
318 
331 
341 
330 
327 
341 
348 
337 
336 
347 
347 
336 
337 
349 
344 
333 
338 
350 
341 
332 
341 
352 
341 
333 
343 
351 
339 
335 
347 
350 
336 
336 
350 
350 
335 
335 
347 
343 
330 
335 
349 
341 
331 
339 
349 
338 
330 
340 
350 
338 
333 
343 
348 
334 
331 
343 
345 
331 
332 
353 
359 
351 
357 
372 
363 
348 
357 
371 
360 
347 
352 
357 
336 
319 
328 
335 
322 
318 
330 
332 
316 
316 
329 
331 
317 
319 
329 
318 
287 
260 
261 
304 
435 
611 
660 
576 
493 
442 
387 
324 
303 
318 
326 
308 
300 
310 
312 
300 
301 
316 
312 
299 
303 
316 
311 
301 
306 
316 
306 
298 
308 
317 
304 
300 
312 
318 
303 
299 
312 
316 
304 
306 
320 
322 
310 
315 
331 
330 
320 
326 
341 
335 
326 
334 
345 
334 
326 
337 
345 
331 
326 
338 
343 
329 
328 
341 
341 
328 
330 
344 
341 
328 
333 
348 
341 
328 
334 
347 
338 
329 
339 
350 
338 
331 
340 
345 
333 
331 
342 
345 
333 
335 
348 
347 
335 
336 
348 
343 
334 
341 
355 
351 
348 
361 
378 
367 
356 
363 
375 
364 
357 
367 
368 
351 
341 
345 
343 
330 
333 
347 
344 
331 
334 
346 
341 
333 
340 
351 
341 
324 
312 
287 
262 
310 
470 
656 
681 
604 
530 
468 
394 
346 
341 
341 
331 
330 
339 
333 
324 
329 
340 
333 
328 
337 
344 
331 
326 
339 
346 
333 
332 
345 
347 
333 
334 
348 
348 
335 
336 
351 
349 
340 
346 
359 
352 
344 
355 
369 
360 
357 
370 
380 
367 
363 
377 
383 
370 
369 
381 
381 
364 
365 
378 
376 
365 
370 
380 
373 
365 
374 
388 
375 
366 
375 
384 
373 
368 
379 
385 
371 
366 
379 
381 
368 
368 
381 
378 
367 
368 
379 
375 
365 
370 
382 
373 
363 
371 
381 
369 
363 
371 
378 
371 
377 
394 
400 
386 
385 
398 
400 
384 
382 
392 
385 
366 
361 
371 
364 
353 
358 
369 
358 
350 
360 
368 
354 
346 
357 
365 
350 
339 
335 
308 
282 
329 
480 
627 
652 
592 
535 
466 
390 
352 
352 
346 
333 
338 
346 
332 
325 
336 
343 
328 
323 
337 
341 
327 
326 
339 
339 
326 
328 
341 
336 
323 
328 
340 
332 
323 
331 
340 
330 
323 
334 
344 
333 
330 
343 
349 
338 
338 
353 
355 
344 
346 
360 
357 
344 
347 
358 
351 
339 
347 
359 
349 
339 
348 
358 
347 
342 
351 
356 
344 
342 
353 
354 
340 
342 
355 
353 
339 
342 
356 
351 
338 
343 
356 
346 
338 
346 
356 
344 
337 
346 
352 
340 
336 
349 
352 
342 
347 
366 
370 
358 
360 
371 
367 
357 
361 
371 
359 
343 
342 
344 
330 
324 
333 
341 
326 
319 
329 
336 
323 
321 
333 
334 
321 
317 
321 
299 
258 
263 
342 
495 
627 
636 
566 
491 
421 
364 
332 
312 
311 
322 
323 
304 
298 
312 
315 
301 
299 
313 
313 
300 
303 
316 
311 
299 
304 
318 
311 
300 
307 
318 
308 
300 
310 
318 
306 
303 
316 
322 
309 
308 
323 
327 
316 
321 
340 
338 
326 
330 
345 
339 
328 
333 
343 
334 
325 
334 
341 
331 
325 
337 
343 
330 
327 
342 
345 
331 
332 
346 
345 
332 
334 
347 
342 
330 
335 
347 
339 
330 
338 
347 
335 
329 
339 
347 
334 
330 
342 
346 
333 
330 
342 
342 
328 
329 
343 
340 
328 
333 
346 
337 
325 
333 
345 
334 
326 
335 
342 
331 
333 
351 
362 
354 
352 
359 
355 
346 
350 
363 
357 
340 
338 
343 
330 
316 
321 
334 
326 
317 
325 
334 
323 
318 
329 
335 
321 
314 
317 
295 
248 
252 
342 
514 
650 
643 
564 
485 
416 
362 
336 
318 
312 
320 
326 
312 
301 
310 
319 
308 
304 
316 
321 
308 
307 
321 
322 
309 
309 
323 
323 
311 
315 
328 
321 
310 
318 
330 
320 
313 
327 
339 
328 
324 
339 
347 
337 
337 
354 
360 
349 
349 
363 
363 
351 
353 
366 
360 
350 
357 
371 
362 
350 
357 
368 
357 
351 
364 
370 
356 
354 
368 
373 
358 
357 
373 
376 
362 
363 
377 
375 
363 
366 
377 
370 
360 
366 
380 
372 
363 
369 
376 
366 
365 
376 
379 
366 
365 
379 
379 
363 
364 
381 
380 
368 
370 
386 
386 
382 
392 
403 
391 
380 
391 
401 
387 
375 
381 
384 
363 
356 
368 
370 
355 
354 
367 
368 
355 
358 
370 
365 
353 
358 
366 
350 
321 
299 
305 
357 
502 
646 
672 
590 
518 
463 
401 
351 
345 
365 
361 
339 
336 
350 
345 
333 
338 
351 
343 
331 
337 
349 
340 
332 
342 
352 
340 
334 
346 
350 
336 
332 
344 
348 
335 
337 
349 
348 
337 
341 
355 
350 
339 
346 
363 
359 
351 
357 
367 
357 
351 
360 
366 
353 
348 
358 
361 
349 
348 
361 
361 
349 
348 
361 
358 
347 
351 
362 
355 
345 
352 
362 
352 
343 
353 
361 
349 
344 
355 
360 
345 
341 
354 
357 
343 
342 
354 
352 
339 
341 
354 
348 
336 
343 
362 
359 
353 
364 
376 
364 
355 
366 
373 
357 
350 
358 
355 
333 
326 
339 
337 
322 
323 
337 
333 
322 
327 
338 
329 
320 
328 
338 
321 
295 
275 
267 
290 
400 
575 
647 
584 
508 
461 
399 
332 
313 
329 
328 
311 
309 
320 
315 
304 
310 
322 
310 
302 
312 
323 
312 
306 
316 
321 
309 
307 
320 
322 
307 
305 
319 
318 
306 
309 
322 
317 
308 
316 
330 
323 
315 
327 
341 
333 
329 
342 
350 
337 
334 
346 
349 
334 
334 
347 
346 
333 
334 
346 
342 
329 
335 
350 
342 
333 
341 
353 
342 
332 
341 
349 
338 
334 
345 
351 
337 
335 
348 
352 
339 
338 
349 
345 
332 
336 
349 
342 
331 
336 
348 
339 
330 
338 
347 
337 
330 
340 
347 
334 
331 
343 
345 
334 
340 
359 
363 
353 
355 
365 
359 
351 
355 
364 
353 
341 
342 
343 
326 
318 
329 
336 
324 
319 
330 
334 
321 
319 
333 
335 
320 
317 
319 
288 
245 
262 
359 
529 
652 
640 
560 
482 
415 
363 
334 
315 
315 
324 
325 
309 
306 
318 
319 
305 
307 
321 
319 
305 
307 
320 
316 
307 
313 
325 
317 
308 
315 
326 
315 
308 
319 
328 
318 
315 
326 
330 
318 
320 
339 
341 
328 
332 
350 
351 
341 
347 
360 
355 
344 
348 
358 
348 
340 
349 
360 
349 
344 
355 
360 
347 
345 
359 
361 
348 
348 
362 
360 
348 
351 
367 
366 
357 
360 
368 
360 
354 
364 
375 
363 
357 
368 
375 
362 
359 
374 
376 
362 
362 
378 
378 
365 
365 
378 
377 
368 
370 
377 
370 
363 
371 
379 
369 
368 
385 
400 
392 
387 
398 
400 
387 
386 
398 
397 
381 
378 
384 
372 
360 
367 
379 
369 
357 
362 
377 
371 
360 
367 
375 
363 
357 
364 
357 
319 
290 
325 
430 
587 
675 
654 
572 
492 
429 
389 
362 
350 
358 
368 
355 
341 
347 
356 
349 
346 
354 
360 
345 
339 
354 
362 
348 
345 
356 
355 
341 
345 
360 
355 
344 
349 
365 
356 
343 
351 
366 
358 
347 
358 
368 
358 
358 
370 
374 
361 
362 
376 
379 
364 
364 
377 
375 
361 
361 
374 
368 
354 
360 
374 
367 
358 
366 
375 
362 
354 
364 
371 
358 
354 
364 
367 
355 
355 
366 
363 
351 
351 
364 
361 
351 
355 
365 
356 
346 
352 
362 
352 
346 
357 
368 
361 
361 
377 
382 
370 
364 
375 
377 
362 
360 
368 
358 
335 
334 
346 
340 
329 
334 
345 
334 
325 
335 
346 
333 
325 
335 
341 
323 
306 
297 
275 
276 
361 
536 
639 
604 
526 
477 
410 
342 
321 
332 
327 
314 
316 
324 
311 
304 
315 
322 
309 
305 
317 
323 
309 
306 
319 
320 
308 
310 
323 
321 
308 
310 
321 
313 
303 
310 
323 
315 
307 
317 
328 
316 
312 
326 
334 
324 
324 
338 
341 
329 
329 
343 
338 
324 
326 
340 
335 
325 
331 
342 
333 
324 
334 
345 
334 
326 
336 
342 
328 
325 
339 
342 
328 
328 
342 
342 
326 
329 
343 
340 
327 
330 
342 
335 
326 
334 
346 
335 
325 
332 
341 
329 
324 
334 
340 
327 
324 
336 
338 
331 
339 
359 
362 
351 
351 
360 
357 
346 
349 
357 
344 
332 
334 
333 
319 
312 
322 
330 
315 
313 
327 
328 
311 
310 
325 
326 
313 
310 
310 
275 
239 
272 
392 
567 
648 
602 
524 
452 
387 
342 
323 
309 
310 
321 
320 
302 
299 
313 
312 
298 
297 
311 
309 
297 
300 
313 
305 
296 
305 
317 
309 
300 
308 
317 
306 
301 
313 
321 
309 
307 
319 
323 
312 
314 
330 
332 
322 
330 
347 
344 
333 
340 
354 
347 
337 
342 
351 
338 
333 
344 
352 
340 
335 
346 
349 
335 
336 
352 
352 
338 
339 
354 
352 
338 
341 
355 
349 
338 
344 
356 
348 
339 
348 
357 
346 
342 
352 
359 
345 
344 
357 
359 
346 
346 
360 
357 
344 
347 
362 
356 
344 
350 
363 
355 
350 
363 
379 
371 
368 
380 
383 
368 
369 
381 
380 
365 
361 
369 
359 
342 
343 
357 
352 
341 
345 
356 
348 
339 
347 
358 
348 
342 
350 
349 
312 
276 
288 
361 
512 
667 
682 
601 
511 
449 
400 
353 
330 
342 
358 
345 
328 
333 
347 
338 
330 
339 
347 
336 
331 
343 
352 
339 
334 
345 
347 
336 
337 
351 
350 
338 
340 
353 
348 
338 
346 
360 
352 
342 
352 
365 
358 
354 
367 
375 
362 
360 
375 
381 
368 
368 
381 
381 
367 
366 
377 
374 
363 
367 
379 
370 
359 
367 
381 
369 
361 
372 
382 
369 
364 
377 
383 
367 
363 
376 
378 
365 
367 
379 
375 
362 
366 
381 
376 
365 
368 
377 
367 
358 
368 
380 
367 
357 
366 
376 
364 
359 
369 
376 
368 
372 
391 
396 
380 
378 
392 
391 
378 
378 
383 
372 
359 
357 
361 
349 
341 
354 
361 
346 
339 
350 
355 
343 
341 
354 
354 
338 
331 
329 
299 
272 
317 
458 
604 
644 
594 
534 
461 
387 
350 
344 
334 
329 
336 
339 
323 
320 
334 
336 
320 
320 
334 
333 
319 
323 
338 
333 
320 
325 
338 
330 
321 
328 
336 
324 
316 
328 
337 
324 
318 
330 
336 
323 
322 
338 
341 
329 
332 
348 
348 
338 
342 
354 
346 
335 
343 
354 
343 
333 
343 
352 
338 
330 
342 
350 
337 
335 
346 
347 
335 
336 
349 
347 
333 
335 
350 
345 
335 
339 
348 
339 
331 
339 
349 
338 
332 
342 
348 
333 
328 
341 
346 
334 
332 
347 
353 
345 
352 
367 
363 
348 
352 
370 
363 
347 
350 
358 
341 
322 
325 
333 
321 
319 
331 
338 
325 
321 
331 
331 
318 
320 
334 
330 
308 
292 
275 
255 
290 
431 
615 
651 
569 
500 
453 
379 
319 
311 
321 
310 
302 
310 
311 
296 
295 
308 
309 
298 
301 
312 
307 
295 
300 
313 
306 
296 
303 
315 
305 
297 
306 
315 
302 
298 
311 
317 
304 
304 
319 
321 
309 
313 
331 
328 
318 
325 
343 
338 
328 
334 
345 
335 
327 
336 
344 
333 
328 
339 
345 
331 
329 
342 
346 
334 
333 
344 
342 
331 
334 
348 
343 
332 
337 
351 
341 
333 
341 
351 
339 
333 
344 
353 
339 
335 
347 
349 
335 
335 
348 
347 
335 
337 
352 
349 
337 
346 
364 
362 
358 
368 
376 
362 
357 
369 
375 
360 
351 
358 
356 
334 
332 
345 
347 
331 
332 
347 
346 
330 
332 
348 
343 
333 
336 
343 
318 
276 
260 
307 
422 
602 
683 
632 
536 
468 
415 
362 
326 
328 
344 
340 
320 
319 
334 
331 
319 
323 
339 
332 
321 
328 
340 
331 
324 
333 
341 
328 
324 
340 
346 
331 
329 
343 
345 
330 
333 
350 
351 
341 
344 
359 
357 
348 
356 
373 
367 
359 
368 
379 
372 
369 
378 
381 
365 
361 
373 
378 
367 
365 
379 
378 
363 
365 
379 
377 
367 
370 
381 
376 
367 
370 
382 
374 
367 
375 
381 
368 
367 
382 
385 
372 
371 
382 
381 
367 
368 
383 
381 
368 
371 
389 
389 
385 
394 
404 
392 
384 
395 
402 
386 
382 
395 
391 
363 
355 
368 
369 
357 
355 
367 
366 
353 
353 
367 
364 
354 
358 
366 
351 
330 
314 
299 
306 
396 
570 
666 
626 
551 
503 
440 
367 
340 
352 
358 
341 
336 
347 
343 
329 
332 
349 
343 
331 
337 
351 
341 
331 
340 
349 
338 
333 
345 
351 
337 
333 
345 
347 
336 
336 
349 
348 
335 
338 
354 
351 
339 
345 
361 
357 
350 
359 
370 
360 
353 
361 
368 
356 
353 
362 
363 
351 
351 
362 
360 
349 
351 
364 
359 
347 
352 
365 
356 
346 
354 
365 
353 
343 
353 
364 
352 
345 
355 
362 
349 
344 
357 
359 
346 
343 
357 
360 
354 
362 
379 
375 
362 
367 
380 
367 
356 
362 
369 
351 
332 
334 
340 
326 
323 
334 
337 
325 
324 
337 
334 
320 
323 
337 
331 
313 
305 
293 
264 
275 
374 
544 
623 
589 
526 
473 
396 
334 
321 
324 
316 
313 
320 
318 
302 
304 
319 
316 
301 
305 
320 
315 
304 
312 
322 
311 
303 
312 
321 
310 
304 
315 
322 
308 
305 
318 
321 
307 
307 
321 
322 
313 
318 
334 
329 
323 
331 
346 
338 
329 
337 
348 
337 
329 
339 
347 
333 
329 
341 
344 
330 
329 
343 
344 
330 
332 
347 
343 
333 
339 
350 
341 
329 
337 
350 
339 
330 
339 
349 
336 
332 
344 
349 
335 
333 
345 
346 
333 
333 
346 
344 
332 
335 
348 
341 
331 
342 
360 
356 
352 
362 
372 
358 
351 
363 
368 
352 
347 
353 
347 
324 
322 
337 
334 
319 
322 
336 
332 
321 
324 
337 
329 
320 
327 
334 
312 
277 
258 
283 
358 
526 
653 
632 
535 
470 
423 
363 
314 
310 
329 
325 
306 
307 
321 
314 
300 
307 
321 
313 
303 
311 
321 
311 
306 
317 
321 
306 
304 
316 
319 
306 
305 
319 
320 
307 
311 
326 
322 
312 
318 
333 
326 
320 
330 
343 
335 
333 
346 
355 
342 
337 
349 
354 
341 
339 
351 
352 
337 
336 
351 
349 
337 
340 
353 
346 
335 
341 
354 
345 
336 
347 
357 
347 
340 
350 
357 
344 
341 
352 
355 
343 
343 
357 
357 
344 
346 
359 
354 
342 
346 
358 
352 
343 
351 
360 
346 
339 
351 
360 
346 
341 
354 
360 
346 
345 
359 
359 
345 
344 
355 
353 
350 
361 
381 
378 
365 
368 
378 
371 
363 
371 
378 
362 
350 
352 
350 
337 
336 
347 
347 
332 
334 
349 
348 
335 
338 
350 
343 
330 
329 
321 
278 
258 
327 
497 
654 
670 
599 
527 
453 
387 
351 
338 
325 
326 
337 
333 
321 
322 
335 
331 
318 
324 
338 
331 
321 
328 
339 
331 
323 
334 
343 
332 
327 
338 
343 
328 
329 
345 
346 
331 
332 
347 
350 
343 
347 
360 
354 
346 
358 
374 
363 
356 
368 
380 
368 
360 
369 
374 
362 
362 
375 
373 
357 
356 
373 
374 
361 
361 
373 
370 
359 
367 
380 
371 
361 
368 
381 
370 
363 
373 
381 
370 
363 
372 
378 
365 
366 
378 
376 
362 
365 
380 
377 
362 
365 
378 
372 
364 
371 
382 
368 
357 
367 
377 
367 
360 
370 
375 
363 
366 
383 
390 
382 
383 
398 
392 
373 
378 
394 
386 
370 
370 
375 
357 
347 
359 
370 
354 
344 
354 
364 
352 
349 
359 
363 
350 
348 
357 
349 
320 
294 
296 
341 
468 
617 
670 
605 
522 
460 
402 
351 
335 
350 
358 
338 
328 
338 
343 
329 
329 
343 
342 
328 
332 
346 
342 
329 
332 
345 
339 
326 
332 
345 
337 
328 
336 
347 
335 
327 
339 
347 
334 
331 
344 
349 
338 
341 
356 
356 
344 
347 
362 
358 
346 
350 
365 
356 
344 
348 
358 
348 
342 
355 
362 
346 
342 
355 
358 
344 
341 
355 
358 
346 
345 
356 
353 
340 
344 
358 
352 
339 
343 
354 
346 
336 
344 
353 
342 
336 
347 
353 
338 
336 
348 
351 
338 
338 
350 
348 
336 
339 
353 
352 
345 
355 
373 
367 
356 
357 
366 
357 
349 
356 
361 
343 
332 
337 
338 
323 
320 
332 
335 
322 
323 
336 
333 
319 
322 
335 
328 
313 
309 
299 
264 
268 
359 
533 
633 
608 
539 
483 
408 
345 
325 
324 
314 
313 
321 
316 
301 
302 
317 
312 
301 
307 
322 
314 
303 
310 
320 
310 
304 
315 
323 
311 
306 
319 
322 
307 
307 
320 
321 
309 
311 
325 
324 
314 
320 
335 
330 
321 
330 
345 
336 
330 
340 
350 
337 
332 
343 
347 
333 
331 
343 
346 
333 
332 
345 
345 
332 
334 
347 
341 
331 
337 
349 
341 
332 
341 
351 
339 
332 
344 
352 
340 
335 
346 
350 
337 
336 
349 
349 
336 
338 
351 
346 
332 
336 
350 
343 
333 
339 
350 
340 
333 
342 
350 
338 
335 
347 
351 
337 
335 
354 
362 
355 
359 
375 
368 
349 
352 
369 
364 
351 
354 
362 
345 
326 
332 
343 
331 
324 
336 
343 
330 
326 
338 
340 
326 
326 
340 
334 
304 
276 
265 
293 
393 
583 
681 
621 
524 
468 
420 
352 
315 
323 
336 
320 
308 
317 
323 
310 
307 
321 
324 
310 
310 
325 
323 
311 
314 
329 
324 
311 
317 
329 
319 
309 
319 
330 
318 
310 
322 
330 
318 
318 
333 
339 
327 
328 
343 
346 
336 
341 
356 
353 
342 
347 
361 
351 
340 
346 
357 
348 
341 
349 
358 
345 
340 
352 
358 
346 
345 
358 
358 
345 
345 
359 
358 
346 
349 
361 
354 
343 
350 
364 
355 
347 
355 
364 
352 
346 
357 
363 
350 
348 
364 
366 
350 
350 
364 
364 
350 
351 
368 
364 
352 
355 
367 
360 
351 
359 
371 
359 
352 
363 
374 
365 
368 
387 
395 
380 
371 
383 
389 
375 
373 
385 
378 
360 
357 
368 
361 
351 
356 
367 
358 
351 
363 
371 
356 
349 
361 
367 
351 
339 
325 
292 
288 
379 
573 
689 
659 
578 
520 
451 
378 
349 
356 
351 
344 
345 
350 
337 
331 
341 
350 
337 
332 
342 
346 
333 
333 
348 
350 
336 
335 
348 
346 
335 
339 
350 
342 
334 
344 
356 
346 
339 
351 
360 
348 
345 
357 
366 
356 
355 
369 
375 
364 
364 
378 
375 
362 
365 
377 
370 
358 
363 
376 
366 
356 
366 
377 
365 
356 
366 
377 
367 
362 
374 
378 
363 
361 
374 
373 
360 
361 
373 
370 
358 
362 
374 
366 
355 
365 
375 
363 
356 
366 
373 
359 
355 
368 
373 
360 
357 
368 
367 
354 
357 
374 
377 
370 
377 
393 
386 
372 
373 
390 
382 
371 
374 
379 
363 
349 
354 
360 
349 
344 
357 
358 
342 
340 
354 
354 
340 
343 
357 
351 
332 
323 
310 
276 
291 
407 
582 
650 
606 
539 
484 
407 
348 
337 
343 
332 
328 
337 
336 
320 
320 
335 
332 
318 
320 
333 
327 
319 
326 
336 
327 
318 
326 
336 
324 
317 
329 
337 
323 
319 
331 
335 
321 
321 
335 
337 
326 
329 
342 
339 
329 
338 
352 
346 
338 
346 
354 
342 
335 
345 
352 
337 
333 
345 
349 
333 
333 
349 
349 
333 
332 
346 
342 
331 
336 
349 
340 
329 
336 
348 
338 
329 
338 
347 
335 
329 
339 
346 
331 
327 
339 
341 
328 
328 
341 
340 
325 
328 
343 
337 
325 
331 
343 
337 
333 
348 
365 
356 
348 
352 
357 
348 
344 
352 
352 
335 
330 
335 
329 
315 
315 
329 
326 
313 
316 
328 
321 
311 
319 
329 
319 
309 
310 
300 
258 
242 
306 
456 
605 
634 
573 
502 
427 
363 
328 
311 
301 
307 
317 
306 
291 
297 
310 
301 
290 
298 
310 
300 
294 
303 
310 
297 
294 
307 
311 
298 
297 
310 
310 
297 
299 
312 
309 
298 
305 
320 
313 
305 
313 
326 
317 
311 
323 
335 
327 
324 
336 
341 
327 
322 
336 
338 
324 
324 
337 
334 
323 
326 
339 
333 
323 
329 
341 
332 
324 
332 
341 
330 
325 
337 
343 
329 
326 
338 
342 
328 
327 
342 
342 
329 
329 
343 
341 
328 
331 
343 
336 
327 
335 
345 
335 
326 
335 
344 
332 
329 
341 
345 
330 
329 
343 
346 
330 
331 
350 
355 
348 
354 
369 
360 
343 
350 
368 
358 
346 
351 
358 
341 
326 
334 
341 
327 
323 
334 
338 
325 
326 
343 
344 
329 
327 
339 
330 
302 
276 
264 
290 
398 
595 
688 
629 
530 
471 
417 
349 
319 
329 
337 
321 
317 
325 
325 
313 
316 
329 
326 
314 
319 
333 
324 
313 
322 
338 
329 
317 
324 
334 
323 
318 
330 
336 
323 
323 
337 
339 
328 
330 
346 
348 
337 
342 
358 
356 
344 
352 
369 
362 
353 
362 
371 
359 
355 
366 
372 
358 
352 
365 
370 
357 
354 
365 
368 
355 
358 
370 
366 
354 
359 
374 
369 
359 
363 
374 
365 
358 
369 
377 
364 
359 
371 
376 
363 
362 
377 
376 
358 
358 
376 
378 
364 
363 
374 
368 
357 
362 
376 
369 
358 
363 
379 
377 
377 
391 
397 
382 
376 
391 
395 
376 
372 
383 
381 
363 
356 
367 
359 
345 
347 
362 
360 
350 
355 
365 
353 
347 
357 
365 
347 
329 
319 
295 
293 
377 
559 
671 
645 
564 
509 
441 
370 
345 
356 
354 
339 
341 
351 
338 
328 
338 
348 
335 
329 
342 
350 
336 
332 
342 
347 
334 
333 
349 
347 
332 
333 
349 
346 
332 
335 
351 
347 
337 
341 
352 
345 
340 
351 
361 
351 
348 
362 
368 
356 
353 
366 
366 
352 
352 
365 
362 
348 
352 
364 
359 
348 
352 
363 
356 
347 
354 
364 
352 
345 
355 
363 
350 
345 
356 
360 
345 
343 
357 
358 
345 
345 
359 
355 
343 
346 
357 
348 
338 
348 
359 
348 
338 
349 
362 
357 
355 
371 
379 
366 
359 
369 
373 
359 
357 
368 
362 
341 
334 
345 
341 
329 
330 
341 
332 
324 
334 
343 
331 
325 
334 
340 
324 
313 
307 
282 
262 
317 
478 
627 
638 
568 
512 
443 
365 
326 
329 
325 
314 
316 
323 
311 
305 
316 
324 
312 
307 
318 
323 
309 
307 
320 
321 
308 
310 
323 
322 
309 
310 
323 
317 
306 
314 
328 
319 
309 
319 
333 
323 
317 
328 
338 
327 
327 
343 
349 
336 
335 
347 
345 
332 
336 
351 
345 
331 
334 
347 
340 
331 
338 
348 
337 
330 
339 
348 
336 
331 
343 
350 
337 
336 
348 
348 
334 
335 
348 
346 
335 
338 
351 
344 
333 
339 
351 
341 
332 
342 
352 
339 
333 
343 
348 
333 
330 
348 
357 
349 
353 
369 
368 
352 
354 
372 
366 
351 
354 
365 
349 
328 
333 
343 
331 
321 
331 
340 
331 
327 
337 
339 
323 
322 
336 
335 
312 
288 
267 
270 
338 
515 
665 
650 
555 
492 
442 
370 
321 
320 
331 
318 
309 
318 
323 
309 
306 
320 
321 
306 
307 
323 
323 
311 
314 
329 
325 
312 
313 
325 
318 
310 
320 
329 
318 
312 
327 
334 
320 
320 
334 
340 
328 
330 
347 
347 
336 
343 
362 
359 
347 
348 
363 
359 
347 
349 
360 
353 
346 
355 
362 
351 
348 
361 
367 
352 
348 
361 
362 
351 
354 
368 
364 
351 
354 
369 
364 
352 
358 
371 
365 
354 
359 
368 
359 
356 
366 
373 
358 
352 
364 
369 
359 
364 
380 
381 
374 
380 
397 
389 
373 
378 
391 
383 
371 
374 
379 
359 
345 
351 
361 
353 
350 
360 
363 
349 
346 
361 
364 
349 
345 
354 
348 
322 
296 
298 
346 
486 
640 
677 
600 
517 
457 
399 
346 
332 
348 
355 
337 
330 
339 
341 
329 
328 
343 
343 
328 
331 
346 
341 
327 
334 
348 
339 
329 
338 
349 
337 
330 
340 
349 
339 
335 
348 
352 
337 
336 
353 
358 
345 
344 
359 
361 
352 
356 
370 
365 
355 
362 
371 
358 
347 
357 
369 
356 
347 
357 
368 
356 
352 
363 
366 
352 
351 
365 
366 
352 
351 
362 
359 
349 
353 
365 
357 
349 
357 
366 
353 
344 
357 
366 
352 
346 
363 
374 
367 
369 
380 
382 
367 
370 
383 
376 
360 
363 
373 
355 
331 
336 
350 
341 
329 
335 
345 
334 
328 
338 
343 
330 
328 
341 
340 
317 
297 
284 
276 
315 
458 
615 
640 
563 
500 
450 
375 
323 
323 
339 
329 
317 
322 
327 
314 
311 
321 
326 
313 
312 
324 
325 
311 
312 
325 
322 
310 
316 
330 
321 
310 
316 
329 
319 
309 
318 
328 
318 
314 
326 
333 
322 
322 
337 
341 
330 
332 
348 
347 
335 
336 
349 
344 
333 
337 
348 
340 
331 
337 
347 
337 
330 
342 
348 
335 
332 
344 
349 
336 
334 
346 
348 
335 
336 
347 
342 
332 
338 
352 
344 
333 
339 
352 
341 
332 
340 
349 
337 
332 
343 
348 
336 
339 
356 
364 
355 
357 
369 
363 
352 
357 
367 
358 
345 
345 
348 
330 
319 
328 
337 
328 
321 
331 
338 
324 
320 
332 
336 
322 
321 
330 
313 
266 
247 
298 
416 
586 
659 
613 
524 
451 
394 
348 
315 
312 
324 
329 
310 
301 
312 
318 
304 
302 
317 
318 
304 
303 
317 
317 
306 
310 
323 
317 
305 
310 
323 
316 
309 
317 
327 
317 
312 
322 
332 
323 
321 
335 
341 
328 
329 
346 
349 
339 
342 
357 
353 
341 
347 
360 
350 
338 
344 
353 
344 
338 
349 
358 
345 
338 
350 
355 
343 
341 
354 
355 
342 
344 
357 
356 
343 
347 
362 
358 
346 
350 
361 
352 
345 
355 
362 
349 
344 
357 
365 
353 
348 
359 
363 
350 
355 
373 
376 
367 
374 
388 
380 
369 
377 
388 
377 
367 
371 
377 
356 
341 
351 
359 
348 
342 
353 
360 
347 
343 
355 
357 
344 
346 
356 
345 
317 
293 
292 
329 
456 
632 
685 
611 
526 
469 
412 
356 
337 
351 
358 
338 
331 
343 
349 
335 
331 
344 
346 
334 
333 
345 
343 
334 
338 
350 
341 
332 
341 
353 
342 
335 
344 
352 
341 
337 
349 
355 
345 
345 
358 
359 
347 
351 
368 
370 
356 
360 
377 
372 
361 
366 
376 
367 
358 
366 
376 
363 
357 
370 
375 
357 
353 
367 
370 
356 
354 
367 
366 
353 
356 
370 
364 
352 
357 
374 
364 
353 
361 
371 
358 
352 
363 
371 
358 
352 
364 
367 
354 
357 
376 
382 
372 
373 
387 
384 
373 
377 
385 
375 
363 
368 
371 
349 
338 
348 
355 
341 
335 
347 
353 
339 
334 
345 
349 
337 
335 
344 
335 
307 
284 
283 
313 
422 
582 
652 
595 
515 
460 
404 
344 
321 
334 
344 
328 
320 
330 
333 
316 
312 
326 
328 
317 
319 
332 
327 
314 
318 
332 
325 
314 
320 
332 
322 
314 
324 
331 
319 
314 
327 
333 
320 
318 
333 
337 
325 
326 
341 
342 
332 
335 
350 
345 
334 
339 
352 
344 
332 
337 
347 
336 
329 
339 
348 
334 
330 
343 
348 
334 
333 
347 
349 
335 
335 
348 
345 
334 
339 
350 
342 
332 
338 
350 
339 
332 
342 
351 
337 
330 
342 
349 
335 
330 
341 
343 
332 
332 
346 
344 
331 
335 
355 
355 
350 
360 
373 
360 
347 
358 
369 
355 
344 
351 
352 
330 
319 
330 
334 
319 
317 
332 
331 
318 
319 
333 
329 
318 
322 
331 
314 
284 
261 
265 
310 
451 
626 
661 
573 
491 
439 
381 
322 
306 
322 
325 
306 
303 
316 
314 
302 
304 
316 
310 
301 
308 
319 
309 
301 
311 
321 
311 
306 
317 
322 
308 
307 
322 
324 
308 
306 
319 
321 
311 
314 
330 
326 
315 
324 
341 
337 
330 
339 
353 
343 
335 
344 
351 
338 
333 
346 
353 
338 
334 
348 
351 
338 
338 
352 
350 
338 
341 
353 
346 
336 
345 
358 
349 
337 
344 
354 
344 
340 
352 
357 
344 
343 
356 
360 
344 
343 
357 
357 
344 
346 
360 
356 
345 
349 
362 
355 
346 
352 
363 
352 
347 
357 
364 
349 
345 
359 
368 
362 
364 
381 
385 
373 
370 
382 
384 
374 
375 
384 
375 
356 
352 
359 
352 
344 
354 
362 
348 
339 
351 
360 
349 
346 
354 
354 
339 
336 
329 
294 
276 
343 
520 
662 
661 
584 
522 
447 
374 
346 
351 
347 
340 
342 
344 
332 
329 
341 
343 
331 
332 
346 
343 
327 
331 
346 
342 
329 
332 
345 
340 
329 
334 
345 
336 
328 
339 
349 
337 
334 
348 
356 
344 
342 
356 
363 
352 
353 
369 
368 
355 
357 
372 
367 
355 
359 
369 
359 
349 
356 
368 
358 
351 
360 
368 
356 
349 
361 
366 
355 
355 
369 
367 
352 
353 
368 
364 
350 
353 
366 
359 
349 
355 
368 
359 
350 
357 
366 
355 
352 
364 
372 
363 
368 
384 
386 
372 
368 
383 
381 
365 
365 
378 
366 
344 
341 
353 
344 
335 
342 
351 
341 
336 
345 
350 
335 
333 
347 
350 
328 
312 
298 
274 
283 
381 
559 
645 
604 
534 
485 
413 
349 
332 
341 
332 
322 
328 
333 
320 
315 
326 
331 
319 
316 
329 
331 
318 
318 
332 
329 
317 
322 
337 
329 
316 
321 
334 
326 
319 
328 
336 
325 
321 
334 
342 
331 
328 
342 
347 
335 
336 
351 
353 
341 
344 
357 
351 
339 
343 
355 
346 
335 
342 
352 
342 
335 
346 
355 
342 
336 
348 
353 
341 
340 
352 
351 
338 
340 
354 
350 
338 
340 
352 
345 
336 
343 
355 
345 
335 
345 
354 
341 
334 
347 
351 
337 
334 
346 
348 
333 
334 
353 
360 
351 
358 
373 
367 
350 
357 
372 
363 
350 
354 
360 
340 
326 
332 
340 
326 
320 
332 
336 
322 
321 
335 
335 
322 
322 
335 
327 
299 
271 
259 
281 
381 
573 
676 
617 
520 
465 
415 
346 
312 
323 
332 
316 
309 
319 
320 
305 
304 
317 
315 
302 
305 
320 
314 
303 
309 
322 
314 
305 
313 
323 
311 
304 
315 
323 
309 
305 
320 
325 
313 
312 
327 
329 
319 
322 
337 
337 
328 
336 
352 
344 
333 
340 
352 
342 
333 
341 
349 
336 
331 
342 
347 
336 
335 
348 
349 
335 
336 
349 
348 
335 
337 
352 
347 
336 
341 
353 
344 
336 
345 
355 
343 
338 
351 
357 
341 
336 
349 
352 
340 
340 
354 
353 
340 
341 
353 
349 
339 
343 
355 
349 
345 
359 
376 
371 
363 
370 
374 
364 
364 
375 
379 
363 
356 
358 
349 
335 
337 
351 
347 
333 
336 
350 
344 
335 
340 
350 
342 
335 
337 
327 
281 
253 
303 
440 
622 
687 
639 
551 
468 
405 
366 
343 
330 
335 
345 
338 
325 
328 
338 
330 
321 
330 
340 
329 
323 
333 
341 
329 
324 
336 
343 
329 
327 
340 
342 
330 
330 
344 
343 
333 
336 
347 
344 
339 
349 
361 
351 
346 
360 
373 
363 
357 
369 
375 
363 
359 
372 
372 
358 
358 
368 
368 
356 
360 
373 
367 
356 
362 
374 
367 
358 
364 
374 
363 
358 
367 
374 
363 
361 
372 
375 
359 
358 
372 
371 
359 
363 
376 
368 
355 
361 
380 
377 
368 
378 
394 
386 
377 
385 
395 
381 
374 
385 
390 
367 
351 
358 
361 
346 
345 
359 
359 
345 
346 
359 
354 
343 
348 
359 
350 
334 
328 
312 
278 
299 
423 
591 
649 
606 
549 
490 
408 
354 
348 
349 
336 
333 
342 
337 
326 
328 
341 
335 
324 
331 
342 
331 
323 
333 
340 
330 
325 
336 
340 
326 
324 
336 
337 
323 
324 
340 
339 
326 
329 
344 
340 
331 
338 
351 
342 
336 
348 
362 
352 
346 
354 
362 
350 
346 
355 
357 
343 
342 
354 
354 
342 
344 
356 
351 
340 
345 
357 
349 
339 
346 
358 
347 
339 
348 
355 
344 
339 
349 
354 
341 
338 
350 
352 
339 
340 
352 
349 
336 
339 
352 
347 
341 
352 
369 
363 
356 
365 
372 
364 
358 
365 
369 
353 
343 
344 
340 
329 
329 
341 
338 
325 
327 
340 
334 
322 
326 
338 
332 
320 
319 
313 
274 
245 
289 
421 
587 
651 
606 
531 
454 
386 
345 
325 
313 
315 
324 
317 
303 
306 
319 
312 
301 
307 
318 
308 
300 
310 
321 
310 
304 
314 
320 
308 
304 
316 
318 
305 
304 
319 
319 
309 
313 
327 
322 
313 
320 
334 
329 
322 
334 
348 
340 
335 
345 
353 
341 
337 
348 
352 
337 
332 
344 
345 
331 
332 
346 
344 
332 
335 
349 
344 
333 
338 
350 
341 
333 
341 
351 
339 
335 
347 
353 
339 
335 
348 
350 
337 
337 
351 
348 
334 
337 
351 
345 
333 
339 
352 
344 
333 
341 
352 
345 
344 
359 
372 
364 
357 
364 
369 
359 
359 
368 
365 
348 
344 
347 
339 
327 
330 
342 
335 
325 
330 
342 
331 
322 
331 
341 
329 
318 
318 
297 
251 
255 
351 
534 
659 
646 
571 
498 
423 
363 
337 
325 
318 
323 
329 
317 
306 
313 
325 
313 
305 
314 
324 
314 
309 
319 
324 
312 
311 
323 
323 
310 
311 
325 
321 
309 
313 
327 
321 
312 
321 
335 
328 
320 
329 
340 
332 
330 
344 
353 
343 
344 
358 
359 
344 
343 
357 
354 
341 
344 
356 
351 
340 
346 
359 
350 
338 
347 
359 
349 
343 
353 
360 
349 
344 
355 
359 
346 
347 
362 
359 
344 
346 
361 
357 
343 
348 
363 
355 
345 
350 
362 
354 
347 
356 
364 
352 
348 
361 
369 
360 
363 
383 
388 
371 
364 
378 
383 
372 
372 
381 
370 
349 
348 
360 
351 
340 
350 
361 
349 
340 
351 
360 
347 
343 
355 
359 
339 
324 
310 
279 
287 
403 
604 
689 
647 
567 
508 
428 
356 
337 
350 
347 
337 
338 
341 
330 
327 
340 
344 
328 
325 
339 
342 
329 
328 
344 
346 
333 
333 
345 
339 
328 
335 
347 
338 
330 
340 
352 
340 
333 
347 
356 
344 
343 
359 
366 
355 
354 
369 
369 
356 
360 
375 
372 
359 
360 
370 
363 
352 
359 
371 
362 
354 
364 
371 
359 
353 
364 
370 
359 
357 
367 
365 
352 
354 
368 
365 
352 
356 
371 
365 
352 
358 
370 
361 
352 
360 
371 
363 
365 
380 
390 
377 
372 
384 
392 
379 
372 
382 
380 
362 
352 
354 
347 
338 
344 
354 
345 
335 
342 
353 
341 
332 
342 
351 
341 
332 
332 
318 
273 
265 
341 
499 
618 
637 
583 
515 
433 
368 
344 
332 
326 
332 
339 
327 
317 
325 
335 
323 
317 
327 
335 
321 
315 
328 
332 
318 
319 
332 
331 
319 
321 
334 
327 
315 
322 
335 
326 
316 
326 
339 
330 
323 
334 
344 
335 
334 
348 
354 
340 
339 
352 
355 
342 
343 
356 
351 
338 
343 
358 
350 
339 
344 
355 
346 
336 
344 
354 
344 
338 
350 
355 
339 
336 
348 
352 
338 
336 
349 
349 
336 
338 
351 
345 
335 
340 
352 
345 
335 
344 
360 
356 
353 
366 
374 
362 
357 
373 
377 
358 
352 
363 
359 
337 
329 
340 
337 
325 
329 
342 
336 
325 
329 
340 
329 
322 
332 
339 
321 
304 
291 
268 
273 
368 
562 
668 
622 
539 
487 
421 
344 
314 
327 
327 
314 
315 
324 
314 
304 
312 
322 
312 
305 
315 
322 
310 
306 
317 
321 
308 
307 
319 
320 
308 
310 
323 
319 
305 
308 
321 
316 
310 
317 
330 
322 
315 
327 
340 
330 
327 
341 
349 
339 
336 
347 
348 
334 
334 
349 
348 
335 
336 
349 
345 
335 
340 
351 
343 
333 
341 
353 
342 
334 
345 
353 
339 
335 
348 
353 
339 
338 
351 
352 
338 
338 
351 
346 
336 
342 
354 
346 
336 
341 
352 
342 
334 
343 
354 
348 
349 
365 
375 
363 
356 
366 
371 
358 
356 
367 
363 
344 
336 
342 
337 
325 
330 
342 
334 
325 
332 
342 
331 
323 
333 
342 
327 
313 
299 
266 
251 
326 
513 
668 
659 
574 
511 
447 
369 
325 
328 
326 
316 
318 
326 
315 
306 
314 
323 
312 
306 
318 
323 
310 
310 
323 
325 
310 
310 
324 
324 
312 
316 
328 
322 
311 
316 
330 
323 
316 
326 
339 
331 
325 
337 
347 
337 
338 
353 
360 
348 
348 
362 
359 
345 
347 
361 
358 
346 
348 
360 
352 
343 
353 
365 
353 
344 
354 
363 
351 
346 
359 
365 
352 
348 
360 
364 
352 
355 
370 
366 
351 
354 
367 
361 
351 
359 
371 
360 
349 
358 
370 
359 
355 
368 
374 
359 
354 
368 
371 
356 
357 
377 
383 
374 
377 
392 
387 
374 
383 
395 
384 
372 
375 
377 
358 
348 
359 
364 
349 
344 
356 
362 
351 
348 
358 
361 
349 
349 
358 
348 
318 
287 
289 
340 
491 
655 
686 
614 
530 
466 
405 
349 
335 
350 
357 
338 
331 
344 
347 
331 
329 
342 
343 
332 
333 
346 
339 
328 
334 
349 
341 
332 
338 
346 
335 
329 
342 
351 
336 
330 
343 
352 
341 
340 
354 
355 
343 
346 
363 
362 
352 
359 
374 
367 
354 
360 
371 
362 
356 
365 
373 
361 
354 
365 
372 
358 
353 
364 
366 
355 
356 
371 
368 
354 
356 
370 
366 
353 
357 
368 
361 
351 
359 
369 
358 
351 
361 
368 
354 
349 
360 
365 
351 
352 
367 
372 
362 
368 
386 
384 
368 
370 
387 
380 
366 
369 
376 
358 
338 
342 
352 
339 
332 
341 
349 
337 
334 
345 
346 
333 
332 
344 
341 
324 
314 
299 
271 
295 
429 
604 
656 
594 
530 
475 
394 
335 
327 
336 
324 
316 
323 
328 
317 
315 
325 
325 
313 
315 
328 
326 
313 
317 
331 
323 
312 
319 
331 
322 
313 
323 
331 
317 
311 
324 
333 
321 
317 
328 
331 
321 
325 
340 
339 
328 
332 
348 
346 
336 
342 
352 
345 
336 
341 
350 
340 
333 
342 
351 
337 
332 
345 
351 
337 
336 
348 
349 
337 
338 
350 
347 
335 
338 
351 
343 
333 
340 
352 
341 
333 
342 
350 
337 
333 
346 
352 
339 
334 
346 
349 
336 
336 
350 
348 
333 
335 
350 
345 
332 
337 
350 
342 
332 
340 
352 
347 
345 
358 
369 
359 
354 
363 
369 
357 
352 
362 
361 
346 
340 
344 
335 
323 
327 
340 
332 
321 
329 
341 
331 
324 
333 
340 
328 
314 
308 
283 
248 
282 
422 
609 
669 
612 
542 
475 
395 
339 
327 
323 
315 
317 
324 
314 
304 
311 
321 
310 
305 
316 
323 
309 
305 
318 
321 
308 
307 
320 
320 
306 
308 
322 
318 
307 
312 
324 
317 
308 
316 
328 
321 
316 
327 
336 
327 
326 
340 
348 
338 
337 
351 
353 
340 
339 
351 
348 
334 
338 
352 
346 
334 
339 
352 
343 
335 
344 
354 
343 
336 
346 
352 
339 
336 
348 
351 
339 
338 
350 
350 
338 
340 
354 
349 
336 
340 
353 
347 
337 
344 
354 
344 
338 
348 
355 
341 
336 
347 
352 
340 
340 
352 
352 
340 
342 
355 
351 
339 
344 
358 
352 
341 
348 
361 
350 
340 
349 
361 
350 
344 
352 
359 
347 
344 
355 
359 
347 
351 
371 
373 
363 
368 
384 
375 
364 
370 
380 
370 
359 
363 
366 
346 
335 
347 
355 
342 
338 
350 
353 
338 
335 
349 
353 
340 
336 
338 
310 
262 
270 
368 
544 
677 
675 
603 
517 
440 
380 
351 
333 
334 
346 
344 
323 
319 
335 
341 
328 
325 
338 
339 
326 
327 
341 
337 
325 
330 
342 
335 
326 
333 
344 
337 
329 
335 
343 
334 
332 
344 
350 
339 
341 
357 
359 
344 
347 
365 
366 
357 
359 
372 
368 
359 
364 
375 
366 
357 
364 
371 
359 
354 
366 
372 
360 
356 
367 
370 
361 
361 
373 
369 
356 
360 
375 
370 
357 
360 
372 
365 
357 
365 
376 
366 
360 
371 
379 
367 
361 
370 
373 
360 
361 
375 
374 
359 
357 
370 
371 
362 
361 
370 
369 
368 
382 
397 
384 
374 
384 
398 
385 
372 
381 
387 
370 
357 
363 
367 
352 
347 
360 
360 
347 
349 
361 
357 
343 
347 
362 
357 
341 
337 
326 
285 
285 
382 
557 
657 
645 
578 
509 
428 
368 
352 
350 
340 
343 
352 
342 
327 
331 
347 
339 
326 
330 
342 
335 
330 
342 
349 
335 
328 
342 
348 
338 
334 
345 
347 
337 
339 
350 
344 
330 
339 
358 
352 
337 
342 
361 
361 
351 
352 
369 
366 
356 
359 
366 
351 
351 
366 
368 
351 
349 
370 
368 
349 
357 
371 
367 
354 
356 
369 
356 
344 
355 
365 
356 
362 
372 
359 
342 
349 
370 
377 
358 
348 
364 
361 
339 
350 
373 
372 
354 
360 
382 
387 
381 
386 
384 
371 
363 
371 
377 
365 
362 
365 
361 
344 
339 
349 
347 
329 
330 
344 
344 
338 
342 
349 
340 
333 
338 
335 
309 
290 
309 
379 
499 
595 
596 
525 
452 
402 
369 
349 
329 
329 
342 
337 
321 
322 
335 
334 
318 
318 
335 
334 
323 
326 
336 
328 
317 
326 
341 
327 
315 
326 
338 
325 
323 
336 
340 
325 
321 
339 
344 
328 
330 
347 
340 
329 
340 
355 
345 
337 
346 
358 
347 
341 
353 
363 
341 
330 
343 
350 
339 
338 
347 
347 
335 
340 
347 
341 
331 
340 
354 
346 
336 
341 
352 
343 
335 
339 
349 
341 
336 
344 
353 
343 
345 
365 
371 
358 
360 
373 
375 
360 
355 
368 
361 
337 
330 
336 
328 
321 
329 
334 
318 
313 
326 
334 
321 
317 
327 
330 
315 
309 
309 
296 
277 
301 
388 
523 
588 
548 
482 
425 
368 
334 
328 
318 
310 
315 
320 
305 
299 
314 
320 
304 
300 
313 
316 
303 
305 
320 
316 
303 
307 
319 
314 
302 
308 
321 
315 
306 
311 
319 
310 
306 
317 
323 
312 
311 
326 
331 
320 
320 
336 
340 
329 
331 
344 
340 
327 
331 
345 
337 
325 
331 
343 
334 
326 
335 
342 
330 
324 
335 
343 
332 
328 
337 
339 
329 
331 
343 
339 
325 
330 
346 
341 
329 
332 
344 
337 
334 
349 
363 
356 
352 
363 
372 
360 
360 
368 
366 
346 
342 
350 
342 
323 
321 
332 
328 
317 
322 
336 
329 
318 
325 
337 
328 
319 
328 
331 
305 
281 
280 
313 
391 
545 
636 
591 
495 
433 
395 
350 
316 
319 
336 
326 
308 
312 
325 
318 
308 
315 
323 
313 
307 
318 
326 
313 
310 
323 
328 
315 
313 
325 
324 
311 
313 
328 
324 
311 
316 
331 
326 
318 
324 
335 
329 
324 
337 
347 
337 
334 
349 
357 
345 
343 
355 
355 
341 
341 
352 
347 
336 
340 
354 
349 
339 
343 
355 
345 
337 
346 
357 
346 
340 
350 
356 
343 
341 
353 
358 
344 
344 
356 
355 
342 
344 
359 
355 
341 
345 
357 
348 
339 
347 
358 
354 
352 
367 
381 
370 
363 
370 
375 
366 
362 
372 
371 
352 
344 
348 
342 
330 
334 
347 
342 
331 
337 
349 
340 
331 
340 
350 
337 
327 
327 
310 
271 
281 
371 
543 
651 
622 
550 
485 
417 
362 
341 
331 
323 
327 
336 
326 
315 
321 
330 
320 
313 
325 
332 
320 
314 
327 
332 
317 
315 
329 
330 
318 
319 
332 
329 
317 
322 
335 
330 
319 
327 
341 
335 
327 
336 
345 
337 
335 
347 
357 
348 
347 
359 
361 
348 
346 
361 
360 
347 
349 
362 
355 
343 
348 
363 
355 
346 
353 
364 
352 
344 
354 
362 
351 
346 
358 
363 
350 
346 
359 
360 
346 
348 
362 
359 
348 
354 
366 
355 
343 
349 
363 
355 
347 
354 
364 
352 
347 
355 
360 
348 
347 
362 
365 
348 
345 
360 
367 
361 
369 
387 
383 
368 
367 
382 
377 
367 
371 
378 
364 
352 
354 
357 
343 
338 
350 
354 
341 
340 
353 
355 
342 
342 
354 
351 
331 
316 
297 
276 
311 
457 
642 
680 
605 
533 
475 
399 
346 
339 
346 
334 
329 
337 
337 
322 
322 
335 
338 
326 
325 
338 
336 
325 
329 
339 
333 
325 
334 
342 
331 
324 
334 
343 
332 
328 
342 
347 
334 
332 
347 
351 
338 
340 
354 
354 
346 
353 
367 
360 
351 
360 
373 
361 
353 
360 
368 
353 
347 
360 
367 
354 
351 
364 
368 
354 
353 
366 
366 
354 
353 
365 
361 
353 
361 
370 
360 
352 
359 
368 
358 
352 
363 
369 
356 
351 
365 
369 
352 
350 
364 
367 
351 
351 
366 
363 
350 
354 
367 
360 
350 
361 
378 
372 
369 
380 
390 
376 
371 
382 
385 
368 
363 
369 
364 
344 
344 
357 
355 
339 
340 
356 
352 
339 
342 
354 
347 
339 
344 
348 
326 
298 
284 
306 
384 
541 
648 
634 
546 
478 
424 
369 
332 
333 
349 
343 
325 
324 
336 
328 
319 
327 
338 
326 
318 
329 
338 
325 
319 
332 
339 
324 
320 
334 
335 
322 
323 
337 
335 
322 
324 
339 
335 
325 
332 
344 
337 
330 
341 
353 
342 
335 
347 
358 
348 
345 
355 
356 
340 
338 
351 
352 
339 
340 
353 
348 
337 
342 
354 
346 
337 
345 
356 
346 
338 
346 
354 
343 
336 
347 
351 
338 
336 
349 
351 
337 
336 
349 
348 
336 
339 
351 
346 
335 
341 
353 
343 
336 
345 
354 
342 
335 
345 
356 
349 
351 
369 
374 
358 
352 
366 
369 
353 
352 
364 
356 
339 
332 
340 
333 
323 
330 
340 
329 
320 
329 
339 
327 
321 
332 
336 
320 
309 
302 
275 
259 
322 
487 
624 
626 
559 
504 
433 
359 
326 
328 
323 
313 
316 
323 
312 
307 
316 
323 
310 
309 
322 
323 
308 
308 
322 
322 
310 
312 
324 
320 
310 
314 
327 
319 
310 
317 
328 
319 
313 
325 
333 
322 
318 
332 
340 
330 
331 
348 
350 
337 
339 
354 
352 
338 
340 
353 
346 
335 
341 
352 
342 
334 
342 
353 
342 
336 
347 
354 
341 
338 
350 
352 
338 
339 
354 
352 
339 
340 
354 
350 
339 
342 
354 
346 
338 
345 
356 
346 
338 
348 
355 
342 
338 
349 
354 
341 
339 
352 
353 
340 
341 
354 
352 
339 
343 
355 
349 
339 
346 
357 
347 
340 
350 
358 
345 
340 
352 
360 
345 
340 
353 
356 
343 
343 
356 
355 
344 
352 
372 
373 
364 
368 
377 
366 
360 
369 
377 
365 
354 
358 
359 
339 
332 
343 
348 
335 
335 
347 
349 
334 
333 
345 
342 
331 
330 
330 
295 
256 
281 
386 
558 
663 
635 
556 
477 
413 
368 
342 
325 
327 
338 
334 
318 
317 
331 
328 
314 
316 
329 
326 
315 
320 
333 
325 
317 
324 
334 
322 
317 
327 
334 
322 
319 
332 
335 
322 
324 
340 
343 
330 
332 
347 
346 
337 
343 
358 
353 
345 
353 
367 
358 
349 
356 
365 
352 
346 
358 
363 
349 
346 
357 
358 
345 
344 
357 
356 
346 
349 
361 
356 
344 
350 
362 
354 
345 
353 
365 
354 
346 
355 
363 
352 
350 
361 
363 
349 
348 
363 
363 
349 
352 
366 
362 
349 
353 
367 
362 
351 
354 
365 
357 
351 
358 
365 
355 
350 
361 
368 
357 
354 
366 
366 
353 
354 
368 
365 
354 
358 
372 
366 
355 
358 
369 
362 
353 
361 
371 
361 
352 
361 
369 
357 
354 
366 
373 
364 
368 
386 
387 
373 
369 
382 
383 
373 
374 
383 
372 
357 
355 
360 
351 
345 
354 
361 
349 
344 
355 
358 
346 
345 
360 
360 
337 
321 
304 
281 
306 
440 
613 
664 
602 
531 
473 
399 
349 
343 
353 
341 
332 
338 
344 
333 
329 
338 
340 
326 
326 
339 
338 
328 
330 
344 
339 
327 
331 
342 
334 
325 
334 
343 
333 
328 
337 
346 
335 
331 
344 
351 
341 
338 
352 
356 
345 
348 
364 
361 
349 
352 
363 
356 
345 
351 
361 
350 
341 
350 
359 
347 
342 
352 
359 
346 
342 
352 
354 
342 
341 
353 
353 
341 
344 
356 
350 
337 
341 
352 
344 
336 
344 
354 
343 
337 
347 
353 
340 
336 
349 
352 
338 
336 
349 
350 
337 
339 
351 
346 
333 
339 
352 
346 
335 
342 
354 
344 
336 
349 
363 
358 
357 
368 
371 
355 
350 
361 
362 
348 
348 
359 
352 
331 
329 
343 
335 
323 
328 
338 
330 
323 
332 
341 
328 
322 
334 
336 
312 
285 
268 
277 
339 
501 
636 
634 
545 
478 
424 
362 
320 
319 
333 
324 
310 
315 
326 
316 
308 
317 
327 
316 
311 
322 
326 
315 
314 
326 
327 
313 
314 
328 
326 
313 
317 
331 
325 
314 
321 
335 
327 
320 
328 
337 
328 
324 
336 
345 
336 
336 
349 
354 
343 
342 
354 
354 
340 
341 
351 
344 
334 
340 
351 
343 
335 
343 
354 
344 
337 
346 
354 
341 
336 
348 
353 
341 
339 
351 
352 
340 
340 
355 
351 
337 
341 
354 
349 
337 
343 
354 
346 
338 
348 
356 
342 
336 
347 
353 
342 
340 
352 
355 
341 
340 
353 
354 
340 
341 
355 
351 
340 
343 
356 
355 
352 
366 
381 
371 
359 
363 
374 
367 
361 
367 
367 
351 
343 
351 
349 
335 
334 
347 
345 
334 
337 
349 
341 
332 
339 
349 
336 
319 
306 
283 
267 
322 
491 
655 
657 
572 
509 
447 
371 
330 
335 
338 
326 
323 
331 
324 
315 
321 
331 
321 
313 
323 
333 
322 
315 
326 
335 
322 
318 
330 
334 
321 
319 
334 
334 
321 
322 
336 
335 
325 
329 
341 
336 
328 
339 
352 
344 
341 
352 
361 
350 
348 
360 
364 
350 
347 
359 
361 
347 
345 
358 
353 
340 
345 
361 
357 
346 
350 
360 
350 
343 
354 
365 
353 
344 
354 
361 
350 
348 
360 
363 
350 
349 
362 
361 
347 
350 
364 
359 
347 
352 
366 
360 
350 
355 
363 
351 
345 
356 
365 
353 
348 
358 
363 
352 
352 
364 
363 
348 
350 
364 
363 
356 
365 
384 
381 
371 
373 
379 
372 
368 
375 
381 
366 
355 
360 
361 
349 
345 
355 
357 
344 
342 
354 
352 
339 
342 
356 
353 
340 
336 
331 
296 
261 
298 
426 
589 
661 
627 
553 
471 
399 
360 
347 
335 
335 
343 
339 
325 
328 
342 
338 
322 
324 
339 
334 
322 
328 
341 
333 
324 
332 
342 
329 
323 
337 
343 
327 
325 
339 
341 
329 
331 
346 
347 
336 
337 
350 
351 
344 
350 
363 
358 
352 
360 
371 
358 
350 
359 
365 
352 
348 
359 
361 
348 
348 
361 
359 
343 
345 
359 
359 
347 
348 
360 
352 
343 
350 
362 
353 
343 
352 
361 
349 
341 
352 
359 
348 
346 
358 
357 
343 
343 
355 
352 
341 
344 
357 
351 
340 
345 
356 
347 
338 
346 
359 
353 
354 
369 
378 
364 
359 
368 
373 
361 
358 
369 
365 
348 
341 
347 
342 
331 
335 
345 
337 
328 
336 
347 
337 
329 
338 
346 
333 
320 
316 
293 
257 
284 
409 
577 
641 
604 
542 
471 
390 
342 
337 
333 
322 
323 
329 
319 
310 
319 
327 
315 
310 
321 
328 
317 
314 
325 
326 
312 
311 
326 
326 
314 
316 
328 
323 
313 
318 
330 
323 
314 
323 
334 
325 
319 
330 
340 
330 
328 
343 
351 
339 
337 
351 
353 
340 
340 
351 
347 
335 
340 
352 
343 
333 
340 
352 
342 
334 
343 
352 
340 
335 
346 
352 
340 
337 
347 
349 
338 
338 
352 
349 
336 
339 
353 
347 
337 
343 
353 
344 
335 
343 
352 
341 
336 
345 
351 
341 
338 
349 
352 
340 
338 
349 
349 
342 
351 
369 
370 
359 
361 
369 
364 
357 
361 
368 
355 
342 
343 
344 
331 
327 
338 
343 
329 
326 
339 
340 
326 
325 
338 
336 
322 
318 
312 
274 
248 
301 
455 
620 
655 
590 
520 
449 
381 
339 
327 
317 
317 
326 
324 
308 
306 
320 
319 
305 
309 
322 
317 
306 
312 
325 
317 
307 
314 
325 
314 
308 
318 
325 
312 
309 
321 
325 
314 
313 
327 
329 
320 
323 
338 
336 
326 
334 
350 
346 
338 
346 
359 
349 
340 
350 
357 
345 
340 
350 
355 
342 
339 
351 
354 
341 
341 
355 
354 
342 
344 
357 
352 
341 
346 
359 
352 
343 
349 
359 
350 
344 
351 
357 
346 
343 
353 
357 
343 
342 
356 
355 
343 
344 
357 
354 
341 
345 
357 
349 
339 
346 
362 
360 
357 
371 
382 
368 
357 
370 
380 
368 
362 
371 
370 
350 
338 
347 
347 
335 
338 
349 
343 
332 
338 
349 
341 
333 
342 
352 
336 
314 
294 
269 
280 
384 
584 
688 
641 
555 
499 
436 
360 
327 
337 
338 
324 
323 
333 
326 
316 
322 
333 
325 
317 
325 
332 
320 
317 
329 
334 
320 
319 
332 
333 
320 
322 
336 
334 
322 
327 
341 
334 
325 
333 
347 
337 
330 
341 
353 
344 
341 
353 
361 
351 
350 
363 
363 
349 
349 
361 
359 
345 
348 
362 
358 
347 
352 
363 
355 
347 
354 
363 
352 
345 
356 
363 
350 
347 
359 
364 
351 
350 
362 
363 
351 
352 
365 
360 
350 
356 
367 
358 
349 
358 
369 
358 
349 
359 
368 
356 
351 
363 
367 
354 
354 
369 
375 
370 
376 
390 
384 
367 
373 
389 
381 
365 
370 
377 
355 
339 
350 
361 
346 
340 
351 
356 
345 
343 
353 
354 
341 
342 
353 
344 
316 
292 
281 
309 
435 
615 
688 
635 
549 
482 
416 
351 
327 
341 
350 
332 
320 
331 
336 
323 
321 
333 
332 
319 
322 
336 
331 
319 
324 
336 
330 
319 
326 
336 
327 
320 
328 
336 
325 
322 
335 
342 
331 
329 
342 
345 
334 
336 
352 
353 
344 
347 
361 
357 
348 
354 
364 
353 
344 
352 
361 
353 
345 
352 
358 
348 
346 
356 
358 
346 
343 
355 
356 
344 
345 
356 
354 
345 
350 
358 
349 
339 
347 
358 
346 
338 
348 
359 
347 
339 
349 
355 
343 
340 
352 
355 
344 
346 
363 
363 
356 
362 
371 
364 
357 
361 
368 
357 
347 
347 
345 
332 
326 
337 
342 
328 
325 
337 
341 
326 
325 
338 
336 
323 
325 
330 
307 
266 
255 
308 
434 
578 
642 
608 
527 
448 
384 
344 
320 
320 
330 
330 
313 
310 
322 
321 
307 
309 
322 
318 
308 
312 
325 
317 
307 
313 
324 
315 
308 
318 
327 
314 
309 
322 
328 
316 
312 
323 
325 
313 
316 
332 
333 
321 
327 
342 
340 
332 
340 
353 
344 
335 
343 
353 
341 
334 
344 
351 
338 
334 
346 
350 
337 
337 
349 
348 
336 
338 
350 
344 
334 
340 
352 
344 
333 
340 
351 
341 
333 
342 
348 
337 
333 
345 
350 
336 
334 
346 
347 
335 
336 
349 
347 
336 
344 
363 
360 
353 
361 
373 
362 
355 
364 
371 
356 
349 
356 
352 
330 
326 
339 
340 
327 
327 
340 
338 
325 
327 
340 
335 
324 
327 
334 
312 
277 
256 
289 
388 
562 
667 
640 
549 
477 
420 
358 
314 
314 
333 
330 
310 
309 
321 
317 
304 
308 
321 
314 
303 
310 
321 
311 
303 
312 
321 
309 
304 
316 
321 
308 
306 
319 
320 
308 
310 
324 
322 
312 
318 
332 
328 
319 
328 
343 
337 
330 
342 
355 
345 
339 
349 
354 
342 
336 
347 
350 
337 
337 
350 
351 
338 
339 
353 
350 
338 
343 
355 
347 
338 
346 
357 
347 
340 
350 
357 
345 
341 
352 
356 
343 
341 
353 
353 
340 
342 
356 
351 
339 
343 
357 
351 
339 
345 
356 
347 
338 
347 
354 
342 
337 
349 
355 
342 
339 
352 
355 
341 
342 
355 
358 
352 
360 
379 
377 
364 
364 
375 
371 
362 
368 
376 
360 
345 
344 
348 
336 
332 
344 
347 
333 
332 
346 
346 
333 
332 
343 
339 
322 
311 
292 
256 
278 
408 
608 
683 
631 
556 
497 
419 
350 
329 
333 
324 
319 
325 
323 
310 
311 
324 
320 
308 
312 
326 
320 
309 
317 
330 
320 
311 
319 
328 
317 
312 
323 
328 
315 
311 
324 
329 
319 
319 
333 
332 
322 
328 
342 
338 
329 
338 
354 
349 
341 
351 
363 
352 
346 
356 
363 
350 
346 
356 
357 
343 
343 
358 
360 
346 
346 
359 
357 
346 
349 
362 
355 
347 
354 
364 
353 
345 
355 
364 
352 
346 
357 
363 
350 
346 
359 
361 
348 
346 
359 
359 
349 
353 
365 
358 
346 
353 
364 
354 
345 
353 
362 
352 
345 
355 
362 
351 
348 
360 
363 
348 
349 
362 
360 
351 
359 
376 
377 
368 
373 
383 
375 
369 
375 
382 
369 
361 
365 
363 
345 
339 
351 
356 
342 
338 
350 
351 
338 
339 
351 
348 
334 
332 
331 
296 
254 
282 
409 
586 
674 
650 
576 
493 
414 
359 
335 
322 
326 
336 
330 
311 
311 
327 
325 
310 
313 
327 
321 
309 
315 
328 
319 
312 
320 
328 
318 
314 
322 
327 
316 
314 
328 
329 
315 
316 
332 
335 
324 
326 
341 
339 
328 
336 
352 
348 
339 
346 
358 
349 
342 
351 
358 
345 
339 
352 
360 
344 
339 
353 
357 
344 
344 
357 
354 
339 
341 
357 
353 
343 
345 
356 
347 
337 
346 
355 
344 
338 
351 
358 
343 
339 
351 
353 
341 
343 
357 
355 
340 
341 
353 
349 
339 
348 
366 
365 
358 
364 
372 
364 
360 
374 
381 
366 
356 
362 
359 
337 
332 
345 
344 
332 
331 
343 
342 
332 
335 
348 
337 
326 
334 
347 
329 
305 
290 
277 
285 
385 
562 
657 
624 
549 
489 
415 
342 
321 
335 
336 
320 
319 
329 
323 
310 
316 
327 
319 
311 
319 
331 
320 
312 
320 
329 
318 
313 
324 
328 
316 
313 
325 
326 
315 
319 
333 
329 
317 
323 
337 
330 
322 
330 
342 
335 
331 
342 
353 
343 
337 
349 
354 
341 
339 
350 
350 
337 
338 
351 
348 
335 
339 
354 
348 
335 
340 
353 
345 
336 
344 
354 
344 
338 
346 
351 
338 
336 
349 
352 
338 
336 
349 
348 
335 
336 
351 
347 
336 
338 
349 
341 
332 
340 
351 
339 
335 
349 
362 
356 
356 
369 
370 
351 
353 
368 
367 
349 
347 
356 
343 
323 
328 
342 
335 
323 
329 
340 
331 
322 
330 
339 
327 
324 
334 
332 
303 
271 
261 
298 
413 
589 
672 
624 
536 
468 
409 
345 
310 
318 
333 
320 
305 
311 
320 
310 
303 
312 
319 
307 
304 
315 
318 
306 
307 
320 
320 
306 
308 
323 
319 
306 
310 
321 
313 
304 
311 
324 
315 
309 
321 
330 
319 
318 
331 
338 
329 
331 
346 
349 
337 
338 
351 
349 
337 
340 
353 
345 
334 
340 
353 
344 
336 
345 
355 
344 
338 
350 
355 
342 
339 
352 
355 
341 
340 
354 
353 
340 
342 
354 
349 
338 
344 
356 
348 
338 
344 
355 
345 
340 
349 
354 
341 
338 
351 
356 
343 
340 
353 
354 
341 
341 
358 
361 
354 
362 
379 
371 
355 
360 
378 
369 
357 
363 
369 
353 
337 
342 
347 
335 
333 
345 
344 
330 
331 
344 
343 
331 
333 
346 
336 
315 
293 
270 
268 
344 
534 
681 
661 
574 
511 
454 
374 
327 
328 
335 
323 
316 
324 
321 
310 
313 
326 
321 
309 
314 
327 
320 
311 
319 
329 
319 
313 
323 
331 
319 
314 
326 
330 
316 
315 
328 
331 
319 
321 
336 
334 
322 
329 
345 
341 
333 
343 
357 
350 
345 
355 
365 
353 
347 
357 
363 
348 
345 
358 
360 
347 
347 
362 
362 
349 
351 
364 
358 
347 
352 
365 
356 
346 
356 
366 
354 
347 
358 
365 
352 
348 
360 
364 
352 
352 
364 
365 
352 
353 
366 
362 
350 
354 
367 
360 
350 
355 
366 
355 
349 
358 
367 
356 
351 
361 
365 
352 
351 
371 
379 
370 
374 
388 
383 
366 
374 
390 
381 
366 
370 
379 
360 
343 
351 
361 
348 
341 
352 
361 
348 
343 
355 
359 
344 
343 
353 
343 
307 
273 
275 
335 
492 
667 
689 
628 
541 
476 
415 
351 
327 
342 
350 
332 
322 
332 
337 
324 
321 
334 
335 
322 
323 
335 
332 
321 
324 
338 
332 
321 
328 
340 
330 
321 
329 
337 
326 
322 
335 
342 
332 
329 
341 
345 
335 
336 
351 
354 
345 
350 
365 
362 
354 
362 
372 
362 
353 
362 
371 
359 
353 
365 
371 
356 
352 
365 
370 
357 
357 
370 
370 
357 
360 
375 
371 
357 
363 
377 
368 
355 
362 
375 
366 
360 
369 
375 
363 
359 
370 
375 
360 
357 
370 
373 
360 
360 
372 
370 
357 
359 
372 
366 
357 
364 
375 
363 
355 
366 
379 
373 
375 
388 
393 
376 
373 
389 
390 
373 
370 
380 
374 
349 
348 
364 
359 
344 
346 
359 
353 
346 
352 
361 
350 
345 
355 
358 
336 
312 
289 
287 
351 
521 
669 
676 
597 
528 
466 
388 
335 
332 
350 
343 
328 
329 
338 
329 
320 
329 
337 
325 
319 
329 
336 
325 
323 
334 
334 
320 
322 
337 
333 
318 
322 
338 
334 
322 
327 
340 
334 
327 
334 
344 
336 
333 
346 
354 
343 
343 
356 
359 
350 
352 
365 
361 
347 
348 
361 
357 
343 
347 
362 
356 
346 
351 
359 
349 
344 
354 
360 
347 
343 
357 
361 
344 
342 
357 
357 
342 
343 
354 
352 
341 
347 
359 
352 
339 
346 
358 
346 
337 
347 
355 
343 
339 
348 
352 
343 
348 
366 
371 
359 
361 
371 
368 
358 
358 
369 
361 
346 
341 
343 
334 
326 
332 
341 
331 
325 
335 
340 
326 
322 
336 
339 
323 
319 
324 
305 
261 
253 
324 
476 
608 
642 
594 
517 
434 
367 
336 
316 
313 
323 
327 
310 
303 
312 
317 
302 
300 
313 
314 
303 
305 
317 
315 
304 
307 
321 
314 
301 
307 
319 
310 
303 
312 
321 
309 
304 
315 
320 
307 
306 
321 
326 
314 
317 
333 
335 
324 
329 
344 
341 
329 
333 
345 
338 
329 
335 
344 
333 
326 
337 
344 
329 
324 
337 
343 
331 
329 
340 
341 
328 
328 
342 
338 
326 
329 
342 
335 
325 
331 
344 
334 
325 
334 
343 
333 
327 
337 
343 
329 
327 
339 
340 
327 
329 
344 
341 
329 
333 
346 
340 
330 
342 
360 
357 
351 
360 
366 
351 
349 
361 
365 
348 
343 
350 
343 
321 
319 
333 
333 
319 
322 
336 
332 
320 
324 
336 
328 
318 
323 
326 
296 
255 
252 
317 
462 
626 
669 
600 
510 
446 
393 
341 
309 
313 
328 
322 
305 
307 
320 
313 
301 
308 
321 
313 
304 
312 
322 
310 
306 
317 
324 
311 
307 
321 
323 
311 
310 
323 
321 
310 
313 
327 
323 
313 
321 
334 
329 
321 
331 
344 
337 
333 
345 
354 
343 
340 
354 
358 
344 
341 
353 
354 
340 
341 
355 
352 
339 
344 
358 
350 
339 
346 
358 
348 
339 
349 
360 
348 
341 
352 
358 
346 
344 
357 
357 
342 
343 
355 
353 
342 
346 
358 
352 
340 
347 
359 
350 
340 
348 
358 
348 
340 
349 
355 
344 
341 
352 
356 
343 
342 
355 
360 
354 
360 
379 
378 
363 
361 
375 
373 
362 
365 
374 
359 
344 
344 
350 
338 
333 
344 
348 
335 
332 
345 
347 
335 
335 
348 
345 
327 
312 
291 
259 
287 
430 
632 
686 
624 
551 
494 
417 
350 
332 
339 
331 
325 
330 
329 
316 
317 
331 
330 
317 
319 
333 
328 
315 
320 
335 
327 
318 
324 
334 
324 
318 
328 
334 
321 
318 
331 
334 
321 
321 
335 
336 
325 
328 
344 
343 
334 
341 
358 
354 
345 
354 
366 
357 
349 
357 
365 
352 
347 
358 
364 
350 
348 
360 
362 
349 
349 
362 
360 
346 
349 
363 
358 
347 
351 
363 
354 
347 
356 
365 
353 
346 
356 
363 
351 
347 
359 
362 
350 
349 
362 
360 
347 
349 
364 
360 
347 
352 
365 
357 
347 
353 
363 
353 
346 
356 
365 
356 
358 
374 
382 
370 
365 
372 
375 
368 
370 
379 
371 
355 
352 
356 
346 
336 
343 
354 
345 
336 
345 
355 
343 
336 
346 
352 
339 
330 
327 
298 
255 
285 
422 
613 
685 
640 
571 
499 
420 
359 
338 
331 
328 
334 
338 
326 
318 
326 
332 
319 
317 
331 
335 
320 
318 
332 
334 
323 
324 
336 
334 
322 
323 
335 
329 
320 
327 
337 
327 
320 
332 
342 
332 
327 
340 
349 
339 
339 
353 
358 
349 
351 
366 
367 
355 
358 
369 
363 
352 
358 
368 
359 
351 
359 
369 
357 
349 
359 
368 
357 
354 
365 
368 
355 
354 
367 
365 
350 
352 
367 
363 
352 
356 
370 
362 
352 
358 
369 
360 
353 
361 
368 
357 
354 
366 
368 
354 
351 
365 
365 
350 
351 
366 
364 
353 
357 
368 
362 
355 
366 
382 
378 
372 
378 
383 
374 
368 
376 
381 
367 
360 
359 
354 
343 
345 
359 
355 
339 
339 
355 
349 
337 
343 
355 
350 
340 
339 
334 
294 
261 
306 
451 
611 
674 
639 
567 
483 
404 
360 
342 
332 
335 
343 
333 
319 
325 
338 
330 
320 
326 
337 
327 
320 
329 
338 
325 
319 
331 
339 
327 
323 
333 
334 
323 
325 
339 
336 
324 
325 
340 
336 
326 
331 
346 
340 
335 
347 
359 
349 
347 
360 
366 
353 
348 
359 
362 
349 
347 
358 
357 
345 
349 
364 
358 
343 
347 
360 
353 
343 
350 
360 
350 
345 
353 
355 
343 
342 
352 
356 
343 
341 
356 
358 
343 
341 
355 
355 
343 
344 
356 
351 
343 
347 
355 
347 
342 
349 
356 
349 
351 
368 
377 
364 
359 
371 
377 
365 
363 
372 
368 
351 
344 
349 
344 
334 
340 
350 
340 
330 
340 
351 
339 
331 
340 
345 
332 
326 
328 
316 
274 
267 
352 
520 
639 
649 
592 
517 
429 
363 
341 
332 
326 
332 
338 
321 
310 
322 
331 
317 
310 
323 
331 
319 
315 
327 
328 
315 
316 
329 
327 
314 
317 
331 
325 
315 
321 
333 
324 
316 
324 
335 
325 
320 
333 
341 
329 
327 
342 
350 
341 
341 
354 
354 
343 
346 
360 
353 
341 
344 
356 
349 
340 
348 
358 
348 
341 
350 
356 
344 
340 
352 
357 
345 
342 
355 
356 
343 
344 
357 
352 
338 
340 
354 
349 
339 
345 
356 
347 
337 
345 
355 
344 
339 
348 
354 
343 
340 
351 
354 
341 
340 
354 
355 
348 
356 
374 
374 
363 
366 
374 
369 
363 
368 
372 
358 
346 
346 
346 
333 
330 
341 
344 
332 
329 
341 
342 
328 
330 
343 
339 
326 
324 
322 
286 
248 
285 
421 
594 
667 
630 
559 
476 
398 
350 
331 
320 
322 
331 
325 
309 
308 
322 
319 
306 
309 
323 
318 
308 
313 
325 
318 
310 
319 
327 
315 
310 
321 
327 
314 
310 
323 
328 
315 
315 
329 
330 
319 
321 
336 
334 
324 
331 
347 
343 
337 
346 
358 
347 
339 
349 
358 
345 
340 
351 
356 
343 
341 
355 
356 
343 
343 
355 
352 
341 
345 
358 
352 
340 
347 
358 
349 
340 
349 
357 
346 
341 
351 
358 
347 
343 
354 
356 
343 
343 
355 
354 
342 
344 
357 
353 
342 
348 
359 
350 
341 
349 
360 
349 
342 
353 
360 
347 
343 
356 
360 
347 
344 
356 
355 
342 
345 
364 
366 
356 
365 
381 
372 
357 
366 
382 
371 
359 
364 
369 
350 
335 
343 
349 
336 
333 
344 
346 
333 
332 
346 
345 
331 
333 
346 
333 
305 
279 
266 
290 
409 
609 
689 
630 
541 
482 
422 
350 
320 
332 
338 
322 
315 
325 
322 
309 
311 
324 
319 
307 
312 
325 
318 
308 
316 
327 
316 
309 
318 
326 
314 
309 
320 
326 
314 
313 
324 
325 
314 
316 
332 
330 
321 
327 
343 
339 
331 
339 
355 
348 
341 
351 
359 
346 
341 
352 
359 
344 
338 
350 
354 
342 
343 
355 
354 
343 
344 
356 
351 
341 
347 
359 
350 
340 
348 
360 
348 
342 
351 
359 
346 
342 
354 
359 
345 
343 
356 
356 
344 
344 
357 
354 
343 
347 
360 
353 
343 
349 
360 
350 
342 
351 
359 
348 
343 
353 
358 
346 
344 
358 
360 
346 
346 
358 
356 
344 
348 
359 
354 
342 
348 
359 
352 
349 
362 
376 
370 
366 
372 
376 
368 
366 
375 
374 
359 
355 
361 
352 
336 
338 
352 
347 
335 
340 
354 
345 
334 
340 
350 
340 
330 
332 
317 
267 
252 
334 
516 
664 
671 
606 
533 
454 
384 
346 
332 
325 
330 
338 
327 
314 
320 
331 
321 
312 
320 
330 
321 
316 
327 
334 
320 
317 
330 
333 
320 
319 
333 
333 
320 
322 
335 
331 
321 
327 
340 
334 
325 
335 
349 
340 
334 
345 
356 
348 
346 
360 
365 
351 
349 
361 
363 
351 
351 
363 
360 
347 
351 
363 
356 
345 
352 
363 
353 
348 
357 
366 
354 
351 
361 
364 
349 
348 
363 
365 
351 
349 
362 
360 
347 
350 
364 
359 
348 
351 
361 
353 
346 
354 
366 
354 
345 
355 
364 
352 
347 
359 
363 
349 
347 
359 
360 
349 
351 
363 
361 
349 
353 
365 
359 
350 
357 
367 
357 
353 
367 
380 
372 
369 
379 
381 
372 
372 
381 
377 
360 
358 
363 
353 
340 
344 
355 
348 
340 
348 
358 
350 
342 
351 
359 
347 
336 
338 
331 
292 
267 
318 
462 
614 
667 
627 
556 
470 
394 
355 
337 
329 
337 
346 
334 
322 
326 
335 
326 
320 
331 
337 
325 
321 
332 
336 
324 
321 
332 
336 
325 
325 
337 
334 
322 
326 
339 
334 
325 
331 
344 
337 
328 
337 
350 
340 
336 
347 
356 
346 
345 
358 
364 
351 
349 
360 
358 
344 
346 
360 
356 
344 
348 
359 
351 
343 
352 
363 
353 
343 
351 
360 
349 
345 
357 
361 
346 
343 
356 
355 
342 
344 
358 
355 
342 
342 
354 
350 
341 
347 
358 
351 
344 
351 
358 
345 
339 
348 
355 
343 
341 
353 
355 
342 
342 
354 
358 
352 
360 
376 
371 
360 
361 
374 
370 
361 
364 
370 
355 
343 
345 
349 
336 
331 
342 
346 
333 
332 
346 
347 
333 
332 
345 
344 
330 
325 
320 
282 
259 
326 
496 
635 
652 
594 
533 
450 
373 
343 
340 
330 
326 
331 
327 
314 
316 
329 
327 
314 
317 
329 
323 
314 
320 
332 
323 
314 
321 
331 
320 
314 
325 
333 
321 
318 
329 
331 
319 
320 
333 
333 
322 
325 
339 
335 
325 
334 
350 
345 
337 
345 
357 
347 
339 
348 
356 
342 
337 
348 
352 
339 
337 
349 
351 
339 
340 
353 
350 
338 
341 
355 
349 
339 
344 
355 
345 
338 
346 
354 
342 
336 
347 
353 
341 
337 
349 
351 
338 
339 
352 
351 
338 
339 
352 
348 
337 
343 
355 
348 
337 
344 
355 
344 
339 
349 
355 
341 
341 
359 
368 
360 
361 
372 
368 
355 
360 
373 
367 
353 
354 
362 
344 
329 
336 
346 
335 
328 
337 
346 
334 
329 
339 
345 
332 
329 
339 
332 
298 
267 
271 
328 
477 
643 
671 
589 
507 
451 
397 
340 
316 
329 
340 
324 
313 
320 
327 
314 
311 
323 
326 
313 
313 
326 
326 
314 
315 
329 
324 
314 
319 
332 
324 
312 
318 
330 
321 
313 
323 
333 
323 
319 
330 
335 
325 
326 
341 
345 
335 
339 
354 
354 
343 
346 
359 
353 
341 
346 
358 
348 
338 
346 
356 
346 
339 
349 
356 
344 
341 
352 
354 
342 
342 
354 
352 
341 
344 
358 
352 
340 
344 
356 
348 
339 
346 
357 
346 
338 
349 
356 
344 
340 
351 
356 
341 
339 
352 
353 
341 
342 
356 
353 
341 
344 
356 
349 
338 
344 
355 
346 
338 
346 
357 
345 
339 
348 
356 
349 
353 
369 
373 
360 
356 
366 
369 
358 
357 
368 
359 
343 
338 
344 
337 
329 
335 
343 
333 
327 
337 
344 
332 
328 
339 
341 
324 
316 
306 
270 
251 
325 
513 
666 
654 
573 
514 
448 
373 
331 
328 
322 
316 
319 
322 
308 
304 
316 
320 
305 
302 
315 
316 
303 
304 
318 
315 
303 
307 
318 
313 
304 
310 
322 
314 
305 
313 
322 
312 
307 
318 
326 
315 
312 
325 
332 
321 
323 
339 
343 
332 
336 
350 
347 
336 
341 
353 
343 
333 
340 
350 
339 
332 
341 
350 
337 
332 
345 
350 
337 
336 
349 
350 
336 
336 
350 
347 
336 
339 
351 
345 
335 
341 
352 
343 
336 
345 
352 
339 
335 
347 
354 
342 
339 
349 
350 
336 
337 
351 
350 
338 
339 
352 
347 
338 
343 
354 
345 
335 
344 
354 
344 
338 
348 
354 
343 
338 
350 
355 
342 
344 
363 
368 
359 
362 
375 
367 
355 
364 
376 
366 
353 
357 
362 
341 
329 
340 
349 
335 
329 
340 
347 
333 
331 
344 
346 
330 
329 
337 
322 
281 
250 
282 
387 
569 
677 
646 
554 
482 
427 
371 
324 
315 
329 
334 
316 
309 
322 
325 
312 
311 
324 
323 
311 
314 
327 
322 
309 
315 
328 
322 
312 
318 
328 
318 
312 
322 
330 
319 
314 
327 
334 
322 
323 
337 
340 
328 
330 
345 
345 
336 
341 
355 
351 
343 
350 
363 
353 
343 
350 
360 
348 
341 
350 
357 
343 
340 
352 
354 
341 
342 
357 
357 
344 
346 
358 
352 
340 
346 
359 
351 
341 
348 
359 
349 
343 
354 
362 
350 
345 
355 
360 
349 
347 
358 
359 
346 
348 
362 
358 
345 
348 
361 
354 
344 
350 
362 
352 
344 
353 
363 
351 
346 
356 
362 
354 
357 
374 
380 
368 
367 
375 
376 
367 
369 
378 
371 
358 
357 
358 
346 
339 
346 
354 
342 
336 
346 
353 
340 
337 
348 
352 
339 
332 
332 
304 
256 
275 
401 
592 
681 
641 
569 
498 
427 
368 
343 
329 
326 
334 
335 
320 
314 
326 
331 
319 
317 
331 
333 
320 
321 
334 
331 
318 
321 
335 
331 
320 
326 
338 
329 
319 
327 
338 
327 
321 
331 
341 
328 
326 
340 
345 
334 
338 
354 
355 
345 
349 
365 
362 
351 
355 
368 
359 
347 
353 
363 
353 
347 
355 
363 
352 
347 
359 
364 
351 
349 
363 
364 
351 
352 
364 
361 
348 
353 
366 
359 
347 
354 
366 
358 
350 
358 
366 
355 
351 
362 
367 
352 
349 
363 
366 
352 
352 
366 
366 
352 
355 
368 
363 
352 
356 
367 
358 
349 
357 
368 
357 
349 
360 
368 
358 
358 
374 
381 
372 
373 
384 
380 
370 
373 
386 
378 
363 
365 
368 
353 
342 
350 
358 
347 
339 
349 
359 
347 
342 
352 
356 
344 
341 
346 
332 
288 
259 
308 
447 
616 
681 
636 
554 
480 
415 
368 
336 
329 
339 
343 
327 
321 
330 
335 
324 
321 
334 
336 
322 
321 
333 
333 
322 
326 
339 
334 
319 
323 
337 
330 
321 
327 
338 
328 
320 
329 
341 
333 
331 
343 
347 
334 
335 
352 
355 
344 
347 
365 
365 
350 
350 
364 
360 
348 
352 
363 
352 
344 
351 
359 
350 
348 
359 
360 
345 
343 
357 
360 
346 
346 
359 
360 
347 
345 
356 
355 
346 
350 
359 
349 
341 
350 
360 
350 
346 
354 
359 
343 
340 
354 
359 
344 
341 
355 
358 
344 
343 
356 
359 
356 
365 
380 
373 
360 
363 
376 
369 
360 
365 
370 
356 
340 
342 
347 
335 
332 
345 
346 
330 
331 
345 
344 
331 
333 
347 
341 
323 
319 
316 
277 
266 
351 
528 
638 
634 
573 
513 
430 
358 
334 
335 
328 
323 
328 
324 
310 
313 
328 
324 
311 
312 
323 
319 
312 
318 
326 
317 
312 
323 
329 
316 
310 
322 
327 
315 
314 
325 
327 
313 
315 
328 
327 
316 
323 
338 
334 
325 
332 
347 
339 
333 
341 
350 
336 
330 
342 
349 
333 
329 
342 
345 
331 
329 
343 
343 
331 
333 
345 
339 
327 
333 
345 
338 
329 
336 
346 
335 
328 
339 
346 
333 
328 
339 
344 
330 
328 
340 
343 
331 
331 
344 
341 
333 
342 
359 
358 
349 
356 
366 
353 
347 
355 
362 
348 
340 
343 
338 
320 
317 
329 
331 
318 
317 
330 
329 
316 
319 
332 
328 
317 
319 
324 
303 
269 
254 
296 
407 
569 
647 
606 
520 
454 
396 
343 
305 
305 
322 
320 
301 
299 
311 
308 
297 
301 
316 
309 
298 
304 
316 
307 
301 
310 
319 
306 
301 
312 
317 
303 
300 
314 
317 
304 
305 
319 
317 
307 
312 
327 
323 
313 
321 
337 
332 
326 
337 
349 
340 
336 
346 
353 
340 
336 
348 
352 
339 
337 
351 
350 
337 
338 
352 
347 
335 
341 
353 
346 
337 
344 
356 
346 
336 
346 
355 
343 
338 
351 
355 
342 
339 
351 
353 
340 
340 
352 
349 
337 
340 
359 
361 
354 
364 
378 
370 
356 
363 
377 
365 
356 
365 
368 
348 
335 
344 
346 
332 
332 
345 
343 
331 
335 
349 
345 
335 
339 
351 
339 
322 
307 
281 
265 
326 
510 
671 
663 
574 
513 
458 
379 
332 
334 
339 
327 
323 
333 
328 
314 
318 
331 
325 
313 
319 
333 
324 
315 
324 
334 
324 
321 
335 
353 
349 
331 
324 
322 
314 
320 
334 
330 
319 
326 
344 
341 
331 
344 
378 
392 
388 
377 
363 
343 
344 
356 
350 
333 
338 
360 
366 
351 
351 
367 
368 
355 
358 
371 
368 
356 
367 
381 
376 
368 
371 
378 
366 
357 
363 
371 
357 
346 
358 
372 
364 
362 
372 
380 
375 
376 
377 
370 
365 
370 
378 
368 
354 
367 
382 
374 
371 
384 
397 
382 
383 
404 
405 
392 
391 
391 
374 
340 
336 
355 
358 
349 
356 
370 
359 
340 
351 
370 
357 
348 
365 
371 
336 
307 
292 
294 
337 
504 
674 
681 
596 
514 
457 
395 
347 
345 
359 
358 
336 
321 
322 
324 
324 
334 
340 
326 
324 
336 
340 
329 
326 
341 
346 
330 
327 
347 
348 
324 
321 
347 
351 
331 
329 
340 
342 
333 
344 
363 
347 
332 
353 
375 
370 
355 
355 
361 
352 
352 
367 
371 
360 
359 
370 
370 
357 
354 
367 
362 
345 
348 
371 
375 
360 
362 
376 
358 
335 
348 
362 
352 
346 
358 
368 
361 
355 
362 
365 
348 
348 
367 
369 
356 
357 
361 
351 
343 
352 
361 
356 
350 
356 
367 
361 
352 
354 
362 
353 
350 
368 
382 
375 
368 
376 
375 
369 
377 
389 
381 
364 
361 
367 
354 
343 
348 
358 
345 
337 
349 
358 
346 
337 
341 
346 
337 
338 
347 
341 
307 
273 
279 
338 
490 
654 
684 
605 
519 
451 
388 
339 
330 
347 
351 
327 
320 
334 
334 
312 
315 
330 
328 
313 
316 
332 
331 
320 
321 
332 
324 
314 
326 
345 
333 
314 
318 
332 
323 
315 
333 
346 
330 
318 
330 
335 
319 
320 
339 
345 
337 
343 
359 
358 
348 
349 
357 
349 
338 
342 
353 
344 
336 
345 
354 
342 
337 
348 
355 
343 
340 
350 
352 
338 
335 
351 
354 
341 
341 
349 
342 
334 
345 
354 
340 
332 
344 
354 
337 
327 
339 
349 
337 
333 
347 
352 
339 
337 
350 
350 
336 
340 
361 
364 
345 
334 
341 
342 
330 
330 
343 
339 
334 
344 
352 
342 
341 
352 
351 
337 
337 
354 
353 
331 
325 
342 
346 
330 
325 
343 
346 
348 
365 
367 
356 
355 
355 
349 
342 
345 
353 
363 
355 
353 
363 
365 
349 
339 
349 
356 
339 
329 
337 
336 
321 
328 
348 
341 
327 
331 
347 
337 
315 
298 
275 
268 
339 
524 
673 
653 
560 
498 
438 
363 
325 
331 
334 
325 
325 
332 
328 
328 
330 
323 
297 
286 
297 
314 
312 
310 
319 
329 
319 
316 
327 
335 
320 
306 
316 
321 
314 
322 
339 
338 
324 
321 
331 
333 
336 
339 
336 
332 
336 
348 
354 
345 
348 
364 
370 
361 
363 
371 
355 
328 
333 
354 
349 
340 
348 
362 
356 
339 
347 
366 
358 
347 
353 
359 
351 
350 
364 
372 
353 
346 
363 
372 
357 
351 
361 
359 
348 
354 
376 
371 
354 
353 
366 
364 
355 
357 
365 
356 
350 
361 
372 
358 
351 
362 
369 
353 
353 
368 
368 
351 
354 
374 
374 
348 
346 
365 
363 
353 
356 
368 
365 
367 
375 
381 
370 
368 
381 
387 
367 
364 
380 
385 
370 
352 
351 
350 
342 
347 
353 
348 
346 
354 
360 
345 
339 
350 
361 
354 
348 
337 
299 
266 
307 
456 
632 
678 
621 
554 
473 
383 
342 
352 
353 
338 
333 
339 
333 
327 
338 
342 
321 
312 
329 
341 
330 
325 
335 
339 
329 
326 
337 
337 
322 
327 
347 
345 
326 
314 
329 
339 
342 
349 
350 
328 
322 
342 
358 
346 
341 
358 
367 
358 
353 
364 
376 
371 
356 
344 
342 
347 
357 
359 
345 
342 
360 
373 
355 
354 
377 
391 
362 
334 
325 
332 
332 
338 
353 
358 
344 
344 
361 
364 
354 
359 
366 
347 
341 
357 
367 
345 
328 
336 
352 
347 
339 
349 
357 
347 
342 
354 
359 
347 
350 
356 
355 
349 
358 
365 
351 
329 
329 
346 
347 
339 
346 
360 
359 
363 
379 
388 
371 
354 
363 
373 
359 
349 
355 
359 
344 
337 
347 
345 
333 
334 
350 
352 
340 
336 
344 
335 
334 
346 
348 
321 
294 
280 
265 
278 
384 
584 
685 
629 
541 
486 
417 
346 
321 
327 
321 
310 
316 
327 
318 
308 
316 
334 
329 
316 
324 
331 
314 
307 
324 
332 
313 
307 
323 
329 
318 
319 
335 
334 
324 
318 
333 
332 
319 
327 
343 
339 
333 
343 
354 
345 
341 
350 
358 
351 
348 
357 
362 
347 
344 
359 
359 
342 
340 
356 
355 
342 
348 
361 
355 
346 
353 
360 
347 
339 
351 
358 
345 
340 
353 
361 
346 
345 
364 
362 
344 
345 
359 
357 
344 
347 
362 
360 
346 
346 
356 
350 
343 
350 
361 
354 
348 
356 
363 
353 
348 
351 
361 
355 
346 
349 
351 
340 
338 
353 
356 
347 
348 
352 
344 
339 
348 
361 
354 
342 
344 
356 
352 
354 
366 
378 
363 
355 
366 
368 
353 
356 
372 
367 
348 
351 
361 
349 
331 
327 
343 
344 
330 
329 
341 
335 
328 
340 
352 
337 
328 
329 
309 
261 
271 
372 
553 
666 
646 
562 
483 
403 
352 
339 
329 
319 
321 
328 
321 
314 
319 
325 
316 
315 
325 
323 
308 
309 
327 
328 
315 
315 
325 
322 
309 
313 
327 
327 
317 
325 
340 
328 
309 
316 
333 
328 
322 
330 
337 
330 
333 
345 
350 
339 
340 
355 
355 
342 
343 
360 
356 
337 
335 
349 
344 
335 
340 
347 
337 
330 
341 
350 
338 
333 
346 
351 
337 
335 
350 
352 
337 
335 
347 
346 
336 
341 
352 
344 
335 
343 
356 
346 
336 
341 
352 
344 
340 
350 
354 
339 
335 
349 
352 
338 
338 
352 
350 
336 
340 
356 
352 
339 
341 
355 
349 
338 
345 
356 
346 
340 
350 
357 
345 
338 
350 
358 
352 
354 
371 
374 
361 
357 
369 
370 
356 
356 
368 
361 
346 
342 
352 
346 
333 
337 
348 
338 
333 
343 
350 
337 
333 
345 
348 
331 
323 
316 
278 
264 
348 
544 
674 
655 
574 
509 
431 
363 
339 
344 
337 
328 
334 
337 
325 
323 
334 
334 
318 
317 
332 
333 
320 
321 
334 
331 
320 
326 
340 
332 
320 
324 
339 
333 
327 
336 
345 
333 
330 
343 
352 
342 
338 
348 
353 
345 
347 
362 
363 
354 
356 
366 
358 
348 
358 
370 
357 
344 
352 
368 
360 
348 
352 
359 
350 
347 
357 
360 
349 
351 
364 
361 
345 
348 
363 
360 
348 
353 
367 
361 
350 
355 
365 
355 
348 
356 
366 
352 
349 
360 
364 
349 
348 
362 
364 
350 
348 
362 
362 
348 
351 
367 
365 
360 
371 
384 
376 
362 
369 
383 
374 
361 
368 
374 
355 
340 
349 
356 
344 
340 
350 
349 
336 
340 
353 
349 
338 
343 
354 
343 
328 
322 
306 
269 
289 
425 
602 
658 
603 
532 
469 
391 
344 
341 
344 
332 
329 
336 
331 
319 
321 
331 
327 
318 
324 
337 
329 
319 
328 
339 
330 
323 
332 
340 
327 
325 
337 
341 
328 
327 
339 
339 
329 
331 
344 
341 
331 
338 
353 
347 
338 
346 
358 
350 
344 
356 
363 
350 
344 
354 
359 
345 
340 
352 
353 
340 
339 
352 
349 
338 
342 
355 
349 
340 
346 
356 
345 
337 
345 
354 
342 
337 
348 
354 
342 
339 
350 
352 
338 
337 
350 
351 
340 
341 
352 
348 
337 
342 
356 
352 
347 
360 
375 
366 
359 
365 
372 
363 
357 
365 
364 
347 
338 
342 
341 
328 
327 
339 
337 
325 
329 
341 
333 
322 
329 
342 
333 
321 
321 
309 
265 
257 
332 
501 
638 
643 
572 
500 
425 
367 
342 
330 
320 
321 
329 
319 
308 
313 
326 
316 
306 
314 
324 
313 
306 
316 
323 
311 
307 
320 
325 
313 
311 
322 
324 
312 
314 
327 
325 
314 
319 
332 
328 
321 
330 
343 
337 
332 
343 
354 
344 
340 
353 
360 
346 
343 
353 
355 
342 
341 
353 
350 
336 
339 
353 
347 
336 
343 
356 
348 
338 
346 
356 
347 
342 
351 
356 
342 
339 
352 
355 
342 
342 
355 
355 
342 
343 
354 
352 
341 
347 
360 
353 
342 
348 
358 
353 
351 
365 
378 
367 
362 
368 
373 
364 
362 
371 
369 
351 
343 
347 
342 
330 
333 
345 
339 
327 
332 
345 
338 
331 
338 
348 
336 
325 
326 
305 
257 
257 
356 
548 
668 
644 
567 
496 
420 
362 
338 
330 
323 
326 
332 
322 
311 
318 
327 
318 
311 
322 
330 
318 
314 
325 
330 
317 
314 
328 
330 
317 
317 
330 
329 
318 
320 
331 
327 
318 
327 
341 
332 
325 
335 
348 
338 
334 
346 
355 
346 
345 
358 
362 
349 
347 
358 
359 
346 
346 
356 
352 
341 
345 
356 
348 
338 
346 
357 
347 
341 
350 
358 
345 
342 
352 
355 
341 
342 
356 
357 
345 
344 
358 
354 
340 
344 
359 
353 
341 
348 
365 
361 
357 
370 
380 
366 
358 
372 
379 
364 
359 
368 
363 
339 
333 
345 
344 
331 
334 
348 
343 
332 
336 
346 
340 
333 
341 
348 
330 
307 
286 
268 
289 
419 
621 
686 
617 
534 
477 
411 
344 
323 
337 
337 
322 
323 
334 
329 
315 
319 
331 
324 
317 
327 
336 
323 
317 
328 
335 
323 
322 
335 
336 
323 
324 
337 
336 
325 
330 
345 
342 
334 
339 
352 
345 
341 
350 
358 
348 
344 
359 
370 
359 
354 
365 
368 
352 
350 
366 
365 
347 
345 
359 
358 
345 
349 
361 
351 
339 
348 
361 
353 
345 
355 
362 
347 
344 
358 
366 
353 
347 
355 
359 
351 
359 
373 
373 
365 
371 
385 
379 
370 
376 
388 
373 
358 
361 
364 
348 
341 
346 
349 
337 
337 
352 
355 
340 
337 
349 
350 
338 
339 
348 
335 
305 
276 
285 
355 
520 
658 
673 
589 
499 
431 
379 
341 
334 
342 
339 
323 
322 
336 
338 
324 
321 
334 
332 
321 
325 
338 
334 
325 
329 
339 
330 
324 
334 
344 
332 
325 
334 
340 
330 
327 
339 
344 
334 
334 
346 
347 
336 
340 
355 
354 
346 
354 
367 
359 
349 
355 
365 
354 
347 
356 
364 
353 
347 
355 
361 
348 
347 
359 
359 
346 
346 
359 
356 
345 
349 
362 
354 
343 
348 
359 
349 
340 
350 
359 
352 
352 
367 
376 
364 
363 
375 
379 
365 
362 
372 
368 
353 
349 
350 
339 
326 
331 
342 
333 
323 
331 
342 
333 
325 
334 
341 
329 
325 
330 
319 
277 
250 
292 
414 
578 
654 
618 
533 
452 
389 
352 
325 
316 
324 
331 
315 
305 
315 
324 
313 
306 
317 
322 
311 
309 
321 
322 
309 
310 
324 
323 
312 
315 
326 
320 
309 
316 
328 
319 
311 
319 
330 
322 
318 
329 
338 
327 
325 
339 
345 
335 
336 
351 
351 
337 
338 
351 
347 
335 
340 
352 
345 
335 
341 
351 
340 
333 
344 
352 
341 
335 
347 
353 
340 
337 
350 
352 
340 
340 
352 
350 
339 
344 
356 
350 
338 
342 
354 
345 
335 
344 
353 
341 
336 
349 
361 
352 
353 
369 
373 
358 
353 
368 
371 
357 
354 
365 
356 
335 
330 
340 
334 
326 
333 
343 
333 
326 
334 
341 
329 
325 
337 
341 
323 
310 
297 
266 
262 
354 
551 
668 
634 
554 
496 
423 
351 
322 
329 
327 
318 
321 
325 
310 
305 
317 
323 
311 
309 
321 
321 
308 
308 
321 
320 
308 
310 
325 
323 
313 
317 
329 
321 
313 
322 
333 
324 
318 
330 
339 
328 
325 
338 
345 
335 
337 
352 
355 
343 
346 
360 
357 
344 
347 
359 
352 
341 
348 
360 
349 
341 
350 
359 
347 
340 
351 
357 
344 
341 
354 
355 
341 
340 
354 
352 
340 
343 
356 
351 
338 
342 
355 
348 
339 
346 
354 
345 
340 
351 
357 
344 
339 
351 
355 
343 
343 
355 
354 
341 
346 
366 
367 
360 
365 
378 
367 
354 
365 
380 
366 
356 
361 
363 
341 
331 
342 
348 
335 
333 
345 
346 
333 
333 
346 
343 
331 
333 
344 
332 
299 
269 
264 
307 
457 
643 
686 
611 
524 
464 
405 
341 
321 
335 
341 
322 
315 
324 
324 
312 
314 
327 
322 
311 
315 
328 
320 
311 
320 
331 
320 
313 
323 
333 
322 
317 
327 
331 
320 
319 
333 
335 
324 
328 
343 
342 
331 
335 
349 
346 
338 
347 
360 
353 
345 
354 
363 
352 
344 
352 
357 
343 
340 
352 
355 
342 
342 
355 
356 
343 
346 
359 
354 
343 
346 
359 
352 
342 
350 
362 
352 
343 
352 
360 
348 
343 
354 
358 
345 
343 
357 
358 
344 
345 
358 
356 
343 
347 
360 
353 
342 
348 
359 
350 
341 
350 
360 
349 
344 
352 
357 
344 
342 
355 
358 
346 
349 
368 
372 
365 
367 
377 
367 
360 
371 
381 
367 
355 
361 
366 
345 
333 
344 
352 
340 
335 
345 
347 
335 
335 
348 
348 
334 
334 
340 
319 
273 
252 
302 
437 
622 
688 
644 
547 
467 
410 
363 
326 
321 
335 
338 
320 
316 
328 
329 
317 
319 
331 
327 
313 
315 
330 
325 
314 
320 
333 
326 
317 
325 
335 
325 
319 
328 
336 
324 
321 
334 
338 
327 
330 
343 
344 
334 
340 
354 
351 
341 
349 
364 
359 
351 
358 
367 
355 
347 
355 
362 
351 
346 
355 
362 
350 
347 
358 
361 
349 
347 
361 
362 
350 
351 
363 
358 
350 
356 
368 
358 
350 
358 
368 
357 
350 
358 
365 
356 
354 
363 
365 
352 
352 
366 
364 
350 
352 
365 
361 
348 
352 
366 
359 
350 
357 
367 
356 
349 
360 
371 
363 
362 
379 
384 
371 
368 
377 
381 
369 
368 
378 
375 
360 
351 
356 
352 
343 
347 
357 
348 
340 
348 
356 
346 
342 
354 
358 
341 
330 
330 
306 
265 
290 
427 
606 
675 
637 
569 
487 
401 
352 
346 
341 
334 
336 
341 
329 
322 
330 
338 
324 
320 
331 
337 
324 
322 
334 
335 
322 
324 
339 
337 
324 
326 
339 
335 
326 
330 
340 
333 
327 
338 
345 
334 
330 
344 
353 
341 
340 
355 
357 
345 
346 
360 
361 
349 
350 
360 
354 
343 
347 
357 
351 
342 
350 
361 
350 
344 
354 
360 
346 
342 
355 
361 
348 
346 
359 
359 
346 
345 
357 
354 
345 
348 
360 
352 
342 
348 
358 
349 
341 
348 
356 
346 
343 
353 
357 
345 
342 
353 
356 
344 
344 
355 
355 
348 
358 
375 
372 
362 
364 
372 
365 
362 
369 
373 
357 
348 
349 
349 
336 
333 
344 
345 
330 
330 
346 
345 
331 
332 
345 
341 
328 
327 
327 
299 
257 
273 
378 
550 
656 
648 
575 
488 
410 
359 
335 
320 
322 
332 
328 
310 
309 
322 
321 
309 
313 
325 
319 
309 
316 
328 
319 
311 
319 
328 
318 
313 
323 
329 
317 
313 
326 
328 
316 
316 
331 
332 
319 
323 
337 
335 
326 
334 
348 
342 
333 
341 
353 
345 
337 
347 
355 
342 
336 
346 
350 
337 
337 
349 
349 
336 
338 
350 
346 
334 
339 
354 
349 
339 
344 
355 
346 
337 
345 
353 
341 
336 
347 
352 
339 
335 
348 
350 
338 
338 
350 
348 
336 
339 
352 
347 
335 
340 
352 
344 
335 
342 
354 
343 
337 
345 
353 
347 
350 
368 
376 
362 
355 
361 
364 
357 
358 
366 
359 
344 
341 
345 
338 
327 
333 
343 
334 
326 
333 
340 
329 
326 
337 
341 
328 
318 
310 
278 
245 
290 
450 
636 
677 
611 
536 
463 
390 
342 
332 
324 
318 
322 
327 
314 
307 
317 
324 
312 
308 
320 
325 
311 
310 
323 
323 
311 
313 
327 
322 
311 
315 
329 
322 
311 
318 
329 
320 
314 
325 
334 
324 
320 
334 
342 
331 
330 
344 
349 
340 
344 
359 
357 
345 
348 
359 
353 
341 
345 
356 
347 
338 
347 
357 
347 
341 
349 
356 
345 
342 
353 
356 
344 
343 
356 
355 
343 
345 
359 
354 
342 
347 
359 
352 
342 
349 
359 
349 
341 
351 
359 
346 
341 
353 
359 
345 
343 
354 
356 
343 
343 
356 
355 
344 
346 
361 
362 
359 
370 
384 
373 
357 
363 
378 
369 
362 
370 
374 
353 
339 
347 
351 
339 
339 
353 
351 
338 
338 
351 
347 
337 
341 
352 
337 
313 
290 
266 
273 
376 
589 
692 
669 
585 
508 
439 
365 
330 
337 
341 
327 
323 
332 
327 
315 
320 
333 
326 
316 
324 
335 
326 
319 
327 
335 
326 
320 
330 
336 
324 
323 
335 
337 
325 
326 
341 
339 
328 
332 
347 
341 
330 
338 
356 
350 
340 
348 
360 
354 
351 
361 
368 
357 
353 
365 
368 
352 
348 
361 
363 
350 
351 
364 
359 
348 
353 
367 
360 
350 
357 
367 
355 
349 
361 
371 
358 
352 
361 
364 
352 
353 
366 
367 
353 
353 
367 
364 
349 
351 
365 
362 
351 
357 
369 
360 
349 
362 
378 
373 
371 
380 
388 
374 
371 
384 
384 
370 
370 
379 
368 
342 
341 
357 
355 
341 
343 
356 
348 
340 
346 
357 
346 
338 
347 
352 
329 
303 
281 
281 
340 
514 
669 
679 
598 
522 
458 
385 
332 
329 
347 
341 
324 
325 
335 
327 
319 
327 
335 
325 
319 
328 
335 
323 
318 
331 
337 
323 
322 
335 
332 
320 
322 
335 
333 
325 
329 
340 
331 
324 
336 
347 
337 
333 
343 
353 
343 
341 
355 
363 
352 
349 
362 
363 
348 
346 
358 
357 
344 
345 
356 
349 
341 
349 
360 
350 
342 
350 
357 
346 
341 
353 
360 
346 
343 
353 
355 
343 
343 
354 
353 
340 
342 
355 
352 
342 
344 
355 
347 
340 
351 
366 
360 
357 
366 
373 
361 
359 
372 
372 
356 
352 
361 
351 
330 
330 
345 
342 
330 
332 
345 
339 
330 
336 
345 
333 
325 
334 
338 
316 
287 
267 
279 
349 
524 
663 
661 
571 
493 
432 
367 
321 
318 
334 
328 
312 
312 
323 
315 
305 
313 
324 
314 
307 
317 
324 
313 
309 
320 
323 
310 
309 
321 
321 
308 
312 
324 
320 
309 
315 
329 
322 
313 
319 
331 
322 
318 
330 
340 
331 
331 
345 
352 
340 
339 
352 
354 
339 
338 
350 
347 
336 
340 
353 
347 
335 
341 
354 
346 
337 
344 
353 
343 
338 
348 
354 
343 
339 
349 
352 
339 
339 
351 
352 
339 
340 
353 
350 
339 
343 
353 
345 
338 
345 
356 
350 
349 
363 
376 
366 
360 
367 
374 
363 
358 
366 
364 
347 
338 
346 
343 
330 
331 
343 
337 
327 
332 
344 
334 
326 
336 
345 
334 
322 
315 
291 
252 
275 
407 
601 
679 
636 
561 
487 
406 
349 
333 
328 
320 
323 
330 
319 
309 
316 
325 
315 
310 
318 
326 
314 
311 
323 
327 
314 
311 
325 
326 
314 
314 
327 
324 
313 
317 
330 
324 
316 
325 
338 
331 
323 
333 
342 
332 
331 
345 
353 
344 
344 
358 
360 
346 
347 
359 
357 
344 
346 
358 
353 
343 
348 
359 
350 
340 
348 
359 
350 
344 
352 
358 
345 
340 
352 
357 
344 
343 
356 
355 
341 
343 
357 
353 
340 
344 
357 
351 
339 
346 
358 
349 
339 
349 
359 
349 
346 
361 
371 
363 
364 
375 
372 
359 
364 
376 
371 
358 
357 
361 
344 
330 
337 
350 
340 
331 
338 
347 
337 
331 
341 
348 
335 
330 
337 
331 
298 
263 
271 
343 
508 
663 
680 
600 
510 
444 
388 
337 
317 
328 
337 
322 
311 
320 
328 
315 
311 
322 
327 
314 
312 
324 
326 
314 
316 
328 
326 
314 
318 
331 
325 
315 
321 
333 
324 
316 
324 
334 
324 
319 
332 
339 
328 
327 
342 
349 
340 
341 
356 
357 
348 
351 
364 
358 
345 
348 
360 
352 
343 
352 
361 
350 
342 
352 
360 
349 
344 
355 
359 
346 
346 
359 
359 
344 
345 
360 
358 
345 
348 
360 
353 
343 
350 
361 
352 
344 
354 
362 
350 
345 
355 
361 
349 
346 
357 
359 
346 
345 
358 
361 
355 
363 
381 
377 
363 
363 
377 
374 
365 
368 
375 
361 
346 
346 
351 
339 
334 
345 
349 
337 
337 
348 
346 
333 
335 
348 
345 
329 
321 
307 
266 
262 
359 
559 
678 
656 
582 
516 
435 
364 
338 
337 
327 
323 
332 
329 
315 
315 
328 
325 
313 
316 
330 
326 
315 
320 
330 
321 
313 
323 
333 
322 
316 
327 
334 
320 
317 
330 
335 
321 
319 
333 
335 
325 
329 
345 
342 
332 
339 
355 
350 
343 
351 
364 
353 
345 
355 
363 
351 
345 
355 
358 
344 
342 
356 
359 
346 
346 
360 
358 
344 
347 
361 
357 
348 
352 
363 
354 
346 
354 
361 
351 
347 
358 
363 
348 
346 
357 
360 
348 
346 
357 
355 
345 
348 
360 
354 
343 
350 
364 
354 
343 
352 
362 
351 
344 
357 
371 
364 
364 
377 
379 
362 
362 
380 
381 
365 
361 
369 
360 
339 
339 
351 
347 
338 
342 
351 
341 
334 
344 
353 
340 
333 
344 
347 
323 
300 
279 
279 
344 
524 
673 
669 
582 
509 
449 
377 
330 
329 
345 
336 
321 
325 
334 
324 
316 
325 
331 
322 
319 
330 
335 
321 
320 
332 
333 
320 
322 
336 
333 
321 
326 
337 
330 
321 
327 
339 
330 
324 
334 
345 
334 
330 
343 
352 
343 
343 
357 
360 
349 
351 
365 
362 
349 
351 
363 
357 
345 
350 
361 
352 
345 
353 
363 
351 
345 
357 
362 
349 
346 
358 
362 
348 
346 
359 
359 
346 
348 
361 
357 
345 
349 
361 
352 
343 
350 
361 
350 
343 
352 
359 
346 
342 
354 
359 
347 
344 
354 
355 
343 
345 
358 
354 
341 
345 
357 
351 
340 
351 
370 
367 
363 
373 
377 
362 
358 
373 
378 
361 
354 
362 
356 
334 
332 
346 
344 
331 
334 
347 
342 
330 
335 
346 
336 
327 
335 
340 
314 
279 
259 
291 
393 
577 
677 
632 
536 
472 
424 
365 
322 
321 
339 
332 
315 
315 
328 
321 
311 
317 
328 
317 
310 
319 
327 
318 
313 
324 
330 
318 
315 
327 
328 
316 
317 
329 
327 
315 
318 
332 
328 
319 
326 
338 
330 
324 
334 
347 
339 
336 
347 
356 
346 
344 
356 
359 
345 
343 
355 
354 
341 
342 
354 
350 
338 
342 
354 
347 
338 
346 
357 
347 
339 
349 
357 
345 
340 
351 
358 
344 
341 
353 
355 
342 
344 
357 
354 
342 
345 
357 
351 
340 
346 
359 
348 
340 
349 
358 
346 
339 
350 
356 
343 
339 
352 
355 
343 
342 
354 
354 
348 
357 
374 
373 
362 
364 
371 
366 
359 
365 
372 
360 
348 
348 
348 
336 
332 
342 
346 
334 
334 
345 
347 
336 
336 
348 
343 
331 
329 
323 
284 
252 
302 
457 
632 
670 
604 
533 
463 
400 
354 
336 
327 
327 
336 
332 
317 
317 
331 
330 
318 
319 
332 
328 
317 
320 
332 
327 
320 
328 
335 
324 
319 
330 
338 
326 
323 
337 
342 
328 
328 
342 
344 
332 
334 
347 
344 
336 
342 
358 
354 
349 
356 
368 
358 
351 
360 
367 
356 
351 
360 
362 
351 
349 
360 
361 
349 
351 
362 
359 
346 
351 
366 
362 
350 
355 
367 
359 
353 
360 
366 
355 
350 
360 
366 
353 
352 
363 
366 
352 
353 
365 
365 
353 
355 
366 
359 
348 
354 
367 
358 
347 
359 
375 
370 
368 
379 
385 
369 
367 
382 
386 
368 
361 
371 
363 
340 
342 
355 
351 
339 
342 
354 
349 
340 
347 
358 
347 
339 
347 
352 
330 
307 
289 
290 
347 
514 
662 
665 
579 
509 
455 
387 
335 
330 
348 
342 
327 
328 
339 
329 
321 
328 
338 
327 
321 
332 
339 
327 
323 
336 
339 
326 
325 
338 
339 
327 
326 
339 
336 
328 
335 
346 
338 
329 
338 
350 
340 
334 
346 
356 
346 
343 
355 
365 
355 
352 
362 
362 
351 
353 
365 
361 
347 
350 
364 
357 
345 
350 
362 
354 
345 
350 
360 
351 
347 
358 
362 
347 
345 
359 
360 
346 
346 
358 
358 
346 
346 
357 
355 
344 
348 
358 
348 
339 
351 
366 
361 
359 
372 
381 
366 
360 
375 
379 
363 
359 
371 
364 
337 
333 
348 
343 
329 
331 
346 
341 
332 
337 
348 
339 
330 
339 
346 
329 
313 
306 
287 
286 
373 
554 
657 
615 
540 
488 
421 
349 
324 
335 
332 
316 
316 
325 
318 
309 
317 
327 
315 
309 
319 
326 
314 
309 
320 
326 
316 
313 
325 
325 
313 
314 
328 
324 
312 
316 
329 
324 
315 
322 
333 
324 
318 
329 
341 
332 
328 
342 
349 
338 
337 
348 
351 
337 
337 
349 
347 
334 
337 
349 
343 
332 
337 
350 
342 
333 
340 
351 
339 
334 
343 
350 
339 
334 
345 
348 
335 
334 
346 
346 
335 
338 
350 
345 
332 
337 
349 
342 
332 
339 
351 
342 
334 
348 
362 
355 
355 
366 
372 
356 
356 
369 
368 
352 
351 
359 
347 
326 
328 
341 
334 
324 
329 
342 
334 
326 
333 
340 
329 
324 
334 
337 
314 
289 
274 
281 
343 
510 
658 
642 
547 
481 
434 
372 
321 
318 
334 
326 
311 
315 
323 
314 
307 
317 
324 
312 
308 
320 
326 
314 
313 
326 
328 
315 
314 
327 
324 
313 
316 
330 
325 
316 
322 
335 
328 
321 
330 
340 
331 
328 
341 
349 
338 
337 
352 
357 
346 
346 
360 
359 
346 
347 
358 
353 
343 
347 
358 
350 
341 
349 
360 
349 
342 
351 
359 
348 
342 
352 
357 
344 
344 
356 
355 
343 
345 
358 
354 
342 
346 
359 
352 
342 
349 
360 
350 
344 
353 
361 
349 
344 
354 
360 
347 
344 
356 
357 
347 
354 
373 
375 
365 
367 
377 
369 
361 
369 
380 
369 
356 
358 
357 
340 
334 
343 
349 
334 
331 
343 
346 
333 
332 
345 
346 
333 
334 
341 
322 
283 
263 
305 
418 
596 
674 
620 
528 
461 
412 
364 
326 
321 
336 
337 
319 
315 
327 
328 
315 
315 
328 
327 
315 
319 
330 
324 
315 
323 
335 
326 
318 
327 
336 
323 
317 
328 
335 
324 
322 
334 
339 
328 
329 
343 
343 
332 
336 
351 
350 
341 
347 
360 
354 
347 
354 
363 
354 
347 
354 
360 
348 
342 
353 
357 
344 
343 
356 
356 
343 
344 
359 
357 
346 
349 
362 
357 
347 
353 
363 
352 
345 
354 
363 
352 
348 
357 
362 
348 
346 
359 
362 
348 
346 
358 
359 
347 
351 
364 
359 
349 
351 
361 
355 
349 
355 
364 
355 
353 
368 
380 
372 
369 
377 
379 
369 
369 
382 
380 
363 
359 
359 
351 
340 
346 
358 
349 
338 
344 
358 
348 
340 
349 
357 
345 
339 
342 
332 
293 
271 
323 
468 
633 
680 
628 
546 
461 
395 
361 
340 
330 
336 
345 
334 
324 
329 
337 
328 
324 
333 
339 
328 
325 
336 
340 
329 
326 
338 
339 
329 
332 
344 
339 
328 
333 
348 
343 
329 
335 
349 
342 
336 
347 
355 
344 
342 
355 
363 
353 
353 
367 
370 
359 
358 
367 
363 
350 
351 
363 
356 
345 
352 
365 
357 
347 
352 
360 
351 
347 
358 
363 
351 
348 
360 
362 
348 
348 
361 
361 
349 
350 
362 
359 
348 
352 
363 
356 
347 
352 
362 
352 
345 
354 
361 
350 
350 
363 
373 
366 
366 
379 
377 
363 
364 
376 
370 
355 
355 
360 
343 
331 
339 
350 
340 
333 
342 
350 
338 
332 
343 
347 
333 
331 
340 
335 
309 
289 
284 
318 
438 
605 
665 
595 
507 
445 
394 
344 
322 
330 
340 
324 
314 
322 
329 
315 
311 
324 
327 
314 
312 
325 
325 
313 
314 
327 
323 
313 
317 
330 
323 
313 
320 
332 
323 
316 
327 
336 
325 
321 
331 
338 
327 
327 
340 
344 
333 
336 
350 
350 
340 
342 
354 
347 
336 
341 
351 
342 
334 
340 
350 
338 
333 
342 
348 
337 
333 
345 
349 
337 
336 
349 
348 
335 
336 
349 
346 
334 
338 
350 
345 
336 
341 
351 
342 
334 
343 
351 
339 
335 
344 
349 
337 
336 
349 
349 
337 
339 
351 
352 
346 
354 
372 
367 
355 
357 
369 
363 
354 
360 
365 
349 
336 
337 
342 
329 
325 
336 
338 
325 
324 
338 
337 
325 
327 
340 
335 
320 
317 
308 
273 
268 
350 
531 
659 
634 
555 
492 
420 
358 
334 
331 
325 
323 
328 
323 
310 
311 
323 
320 
309 
313 
325 
319 
310 
316 
326 
315 
308 
319 
327 
316 
312 
324 
329 
317 
316 
328 
330 
320 
323 
336 
335 
324 
329 
342 
339 
331 
340 
354 
349 
342 
352 
362 
351 
344 
352 
358 
345 
341 
353 
356 
342 
340 
352 
352 
340 
343 
357 
352 
340 
344 
358 
351 
341 
348 
359 
349 
341 
352 
361 
349 
342 
352 
358 
347 
346 
356 
357 
346 
347 
359 
357 
345 
348 
359 
354 
344 
349 
360 
352 
344 
352 
361 
351 
345 
354 
361 
349 
350 
368 
376 
368 
368 
378 
374 
361 
368 
381 
374 
359 
359 
364 
347 
334 
342 
353 
342 
334 
343 
351 
339 
334 
344 
347 
336 
334 
343 
333 
296 
268 
291 
375 
549 
683 
662 
568 
483 
427 
381 
336 
323 
335 
343 
326 
316 
324 
331 
318 
315 
326 
329 
317 
316 
329 
330 
319 
320 
334 
329 
318 
323 
335 
328 
320 
328 
338 
329 
323 
333 
342 
331 
328 
341 
347 
335 
334 
348 
351 
342 
349 
364 
362 
350 
354 
367 
361 
351 
356 
364 
354 
347 
357 
366 
355 
351 
361 
365 
351 
347 
361 
365 
353 
352 
364 
362 
350 
352 
364 
361 
349 
353 
365 
358 
348 
355 
364 
354 
350 
359 
363 
352 
351 
363 
366 
351 
349 
361 
361 
348 
351 
365 
360 
345 
348 
360 
354 
351 
363 
379 
371 
362 
369 
375 
370 
370 
378 
378 
363 
356 
359 
353 
340 
340 
352 
350 
340 
342 
353 
349 
339 
345 
357 
347 
336 
340 
339 
308 
275 
298 
407 
587 
688 
659 
573 
483 
412 
370 
347 
335 
341 
351 
343 
326 
328 
342 
338 
328 
334 
343 
333 
328 
338 
346 
332 
326 
337 
344 
334 
331 
341 
341 
331 
333 
345 
344 
335 
340 
353 
349 
340 
345 
357 
352 
347 
356 
367 
360 
357 
366 
368 
355 
354 
367 
371 
359 
356 
364 
363 
353 
357 
370 
364 
351 
357 
372 
364 
355 
362 
372 
363 
356 
363 
371 
360 
354 
363 
369 
356 
353 
366 
368 
359 
358 
366 
362 
353 
359 
369 
361 
352 
361 
371 
363 
359 
373 
386 
378 
372 
384 
390 
379 
378 
388 
386 
370 
369 
375 
361 
344 
346 
359 
353 
341 
346 
359 
350 
342 
349 
356 
345 
338 
347 
346 
322 
301 
292 
317 
416 
587 
673 
619 
525 
460 
408 
358 
329 
333 
346 
337 
322 
327 
337 
328 
320 
330 
337 
325 
321 
333 
338 
325 
321 
332 
336 
324 
323 
336 
335 
323 
325 
338 
334 
324 
329 
340 
333 
327 
334 
344 
335 
331 
342 
351 
340 
336 
349 
355 
346 
345 
354 
352 
341 
342 
352 
345 
335 
340 
352 
344 
335 
343 
353 
343 
335 
343 
352 
341 
336 
347 
351 
339 
337 
349 
350 
337 
338 
351 
347 
334 
338 
351 
345 
335 
340 
352 
342 
334 
342 
351 
341 
336 
351 
363 
354 
353 
366 
371 
355 
355 
369 
367 
353 
352 
360 
348 
328 
331 
342 
334 
323 
330 
341 
332 
326 
335 
341 
329 
325 
336 
337 
313 
292 
280 
280 
331 
499 
669 
655 
547 
476 
433 
371 
323 
320 
335 
325 
313 
318 
325 
314 
309 
319 
324 
312 
309 
321 
324 
313 
314 
326 
324 
312 
315 
329 
324 
313 
318 
331 
325 
316 
324 
335 
325 
318 
328 
337 
327 
326 
338 
344 
334 
335 
350 
352 
341 
343 
357 
354 
342 
344 
356 
348 
338 
343 
353 
344 
336 
346 
355 
344 
340 
350 
355 
343 
340 
352 
355 
343 
342 
356 
354 
341 
343 
356 
352 
341 
346 
357 
349 
341 
347 
357 
345 
338 
348 
356 
344 
340 
351 
352 
341 
340 
352 
356 
351 
357 
374 
371 
358 
358 
370 
366 
358 
362 
369 
356 
341 
339 
343 
333 
328 
339 
342 
329 
328 
342 
344 
329 
329 
342 
340 
325 
317 
306 
272 
260 
332 
518 
672 
649 
557 
496 
434 
370 
335 
332 
326 
323 
329 
325 
311 
311 
324 
324 
313 
315 
328 
324 
312 
315 
329 
324 
315 
322 
333 
325 
317 
326 
333 
322 
317 
327 
331 
321 
321 
334 
336 
325 
327 
341 
344 
335 
339 
352 
348 
341 
350 
363 
354 
346 
352 
360 
348 
344 
354 
359 
346 
343 
353 
354 
342 
342 
356 
356 
344 
345 
358 
355 
345 
351 
362 
355 
345 
352 
360 
352 
347 
355 
360 
347 
342 
354 
361 
348 
343 
353 
356 
344 
345 
358 
355 
344 
346 
358 
356 
353 
364 
377 
369 
362 
370 
375 
366 
364 
376 
377 
363 
354 
355 
350 
338 
337 
348 
347 
336 
339 
352 
347 
335 
340 
352 
345 
335 
337 
333 
301 
265 
287 
395 
572 
670 
635 
555 
479 
411 
362 
336 
325 
331 
341 
331 
316 
319 
332 
325 
315 
322 
334 
326 
320 
327 
334 
323 
319 
332 
337 
323 
319 
333 
335 
323 
324 
338 
337 
327 
330 
343 
340 
329 
334 
345 
340 
335 
344 
354 
346 
344 
356 
362 
352 
351 
362 
360 
345 
345 
360 
359 
344 
343 
357 
353 
343 
349 
360 
352 
344 
352 
363 
353 
345 
353 
362 
351 
348 
359 
362 
348 
347 
361 
361 
347 
349 
362 
360 
347 
351 
366 
363 
355 
361 
376 
370 
365 
375 
383 
372 
366 
375 
378 
362 
352 
351 
348 
338 
339 
349 
345 
333 
336 
350 
343 
331 
336 
348 
342 
334 
333 
329 
300 
270 
293 
393 
555 
651 
624 
542 
467 
404 
365 
342 
327 
330 
339 
333 
317 
320 
335 
329 
317 
321 
331 
324 
318 
326 
333 
322 
318 
329 
335 
324 
323 
335 
336 
323 
323 
337 
337 
325 
327 
341 
339 
329 
333 
346 
340 
332 
340 
352 
345 
340 
351 
357 
346 
342 
352 
354 
341 
340 
351 
352 
340 
341 
353 
349 
337 
342 
354 
348 
339 
345 
357 
347 
338 
346 
354 
344 
339 
347 
352 
342 
339 
348 
348 
337 
339 
351 
348 
336 
344 
363 
363 
356 
360 
374 
367 
361 
366 
371 
359 
351 
356 
352 
332 
327 
338 
340 
326 
324 
336 
337 
326 
328 
339 
336 
323 
328 
337 
321 
293 
275 
282 
331 
479 
634 
646 
550 
479 
435 
382 
329 
316 
331 
332 
315 
312 
323 
320 
307 
311 
324 
320 
310 
316 
326 
318 
309 
317 
327 
318 
312 
322 
329 
318 
315 
325 
330 
320 
320 
332 
333 
321 
324 
337 
336 
326 
329 
344 
341 
336 
345 
358 
350 
343 
351 
359 
345 
340 
352 
357 
343 
340 
352 
353 
341 
341 
353 
351 
340 
343 
354 
349 
340 
345 
356 
349 
341 
348 
357 
347 
339 
348 
355 
343 
340 
351 
355 
342 
342 
352 
353 
347 
356 
371 
370 
360 
362 
373 
370 
362 
365 
373 
361 
347 
344 
344 
332 
326 
336 
340 
328 
327 
340 
341 
329 
330 
343 
342 
328 
325 
322 
288 
256 
295 
422 
597 
657 
595 
523 
464 
408 
360 
335 
322 
325 
334 
330 
313 
313 
326 
325 
312 
315 
327 
323 
314 
319 
331 
324 
315 
322 
332 
322 
316 
326 
334 
322 
318 
328 
334 
321 
320 
333 
335 
325 
327 
340 
340 
330 
336 
351 
348 
339 
347 
360 
352 
344 
351 
359 
349 
342 
352 
358 
345 
341 
353 
356 
343 
342 
354 
354 
342 
344 
358 
353 
343 
348 
360 
351 
343 
351 
362 
352 
344 
352 
361 
349 
345 
356 
360 
347 
345 
358 
358 
346 
348 
359 
355 
343 
353 
372 
369 
363 
369 
377 
364 
359 
369 
377 
364 
357 
361 
357 
337 
335 
347 
348 
334 
333 
347 
346 
334 
336 
347 
342 
333 
336 
341 
315 
274 
257 
300 
418 
609 
685 
620 
522 
466 
425 
370 
326 
323 
340 
339 
320 
317 
329 
327 
317 
321 
332 
325 
317 
324 
333 
324 
317 
325 
333 
323 
319 
329 
335 
323 
320 
333 
336 
324 
324 
337 
337 
325 
330 
344 
338 
329 
336 
350 
345 
340 
350 
359 
350 
345 
357 
364 
353 
348 
359 
363 
349 
347 
358 
357 
345 
347 
360 
356 
343 
349 
362 
354 
345 
352 
363 
353 
346 
353 
361 
350 
349 
359 
364 
350 
348 
360 
362 
348 
349 
362 
360 
351 
359 
377 
376 
367 
372 
382 
377 
372 
375 
381 
373 
365 
362 
355 
343 
343 
354 
353 
341 
345 
357 
352 
337 
339 
353 
351 
339 
339 
342 
316 
274 
268 
342 
511 
667 
680 
607 
521 
450 
388 
346 
325 
331 
343 
337 
320 
320 
334 
332 
320 
323 
336 
331 
318 
324 
337 
331 
324 
331 
336 
324 
321 
335 
343 
328 
323 
337 
340 
326 
327 
343 
343 
330 
332 
347 
345 
336 
344 
356 
348 
343 
352 
363 
355 
354 
360 
363 
350 
349 
360 
359 
345 
344 
359 
361 
347 
348 
361 
359 
346 
350 
365 
358 
347 
352 
360 
352 
348 
359 
364 
349 
344 
358 
368 
358 
358 
374 
381 
374 
373 
385 
385 
369 
367 
378 
371 
351 
343 
351 
346 
339 
343 
351 
340 
335 
345 
352 
339 
337 
350 
350 
331 
322 
320 
294 
267 
319 
484 
643 
665 
600 
540 
464 
381 
339 
338 
334 
327 
331 
334 
320 
317 
327 
330 
317 
315 
327 
329 
318 
317 
328 
327 
317 
320 
332 
326 
316 
320 
331 
322 
315 
323 
332 
319 
313 
324 
332 
321 
319 
332 
337 
325 
327 
343 
347 
338 
342 
355 
352 
340 
343 
356 
351 
339 
344 
353 
346 
340 
348 
354 
342 
338 
351 
355 
341 
340 
351 
353 
341 
342 
354 
351 
338 
342 
355 
348 
337 
343 
358 
354 
349 
359 
373 
365 
360 
369 
377 
364 
357 
365 
367 
350 
338 
342 
341 
329 
330 
344 
339 
327 
332 
342 
335 
326 
334 
343 
332 
320 
317 
299 
258 
273 
391 
587 
673 
627 
552 
488 
413 
351 
330 
326 
320 
320 
325 
314 
304 
310 
322 
313 
304 
313 
323 
312 
306 
316 
322 
311 
309 
321 
324 
311 
310 
322 
321 
309 
311 
324 
320 
310 
317 
329 
323 
316 
326 
337 
329 
326 
338 
348 
340 
340 
353 
359 
346 
343 
355 
356 
343 
345 
356 
352 
340 
344 
358 
351 
341 
346 
357 
348 
341 
350 
358 
345 
341 
352 
357 
346 
343 
354 
356 
343 
344 
357 
357 
345 
347 
358 
352 
